0.112953	1.8688	2319
0.584004	1.4240	1767
0.608940	1.4981	1859
0.710578	1.5078	1871
0.737352	1.5593	1935
0.818305	1.7527	2175
0.849839	1.4240	1767
0.929529	1.4691	1823
0.950830	1.6625	2063
1.056977	1.7914	2223
1.097506	1.4465	1795
1.198059	1.5013	1863
1.222158	1.5078	1871
1.330617	1.5722	1951
1.423212	1.5722	1951
1.534296	1.7785	2207
1.872674	1.6238	2015
1.919263	1.8849	2339
2.001648	1.4562	1807
2.026450	1.5481	1921
2.117445	1.5432	1915
2.142966	1.5755	1955
2.233471	1.6109	1999
2.341183	1.6045	1991
2.433903	3.2404	4021
2.558263	1.5271	1895
2.623808	1.7656	2191
2.724674	1.5013	1863
2.840107	1.4981	1859
2.930846	1.5013	1863
3.040199	1.5142	1879
3.137744	1.5722	1951
3.239813	1.5529	1927
3.345202	3.2355	4015
3.454830	1.5658	1943
3.528994	1.8430	2287
3.627732	1.4497	1799
3.727392	1.4820	1839
3.829241	1.5013	1863
3.927259	1.5464	1919
4.026061	1.5529	1927
4.133817	2.8133	3491
4.249129	1.5988	1984
4.332312	1.8881	2343
4.424246	1.4465	1795
4.539601	1.5207	1887
4.632039	1.5336	1903
4.731444	1.5529	1927
4.857648	1.5529	1927
4.927187	3.2355	4015
5.025162	1.5336	1903
5.122390	1.8075	2243
5.238447	1.4433	1791
5.341737	1.4884	1847
5.429404	1.5013	1863
5.549656	1.5400	1911
5.625876	1.5207	1887
5.726064	1.8301	2271
5.833437	1.5593	1935
5.927651	1.8333	2275
6.033945	1.4111	1751
6.141592	1.4820	1839
6.232023	1.5013	1863
6.332693	1.5851	1967
6.429125	1.5529	1927
6.552915	1.3208	1639
6.626752	1.6109	1999
6.727323	1.8881	2343
6.843299	1.4046	1743
6.926928	1.5013	1863
7.028571	1.5013	1863
7.134512	1.7044	2115
7.238905	1.2628	1567
7.333282	1.4965	1857
7.423216	1.7141	2127
7.525810	1.7044	2115
7.648417	1.4820	1839
7.730746	1.4965	1857
7.832458	1.6883	2095
7.929399	1.4884	1847
8.038506	1.4465	1795
8.126133	1.6818	2087
8.235618	1.8108	2247
8.350859	1.4562	1807
8.442455	1.5207	1887
8.533358	1.5239	1891
8.625491	1.5078	1871
8.727346	3.2388	4019
8.860480	1.5013	1863
8.924098	1.7914	2223
9.027081	1.4497	1799
9.134192	1.4981	1859
9.226838	1.5078	1871
9.341249	1.5658	1943
9.432570	1.5271	1895
9.532299	1.2370	1535
9.631402	1.6045	1991
9.721963	1.8430	2287
9.839868	1.4046	1743
9.937014	1.4981	1859
10.044153	1.5078	1871
10.134392	1.6496	2047
10.241657	1.5336	1903
10.324974	1.5916	1975
10.433483	1.6303	2023
10.548154	1.9365	2403
10.621997	1.4433	1791
10.723070	1.5207	1887
10.832098	1.5207	1887
10.930995	1.6625	2063
11.030259	3.2097	3983
11.138078	1.5013	1863
11.236885	1.7721	2199
11.343927	1.5013	1863
11.426375	1.4465	1795
11.543068	1.4981	1859
11.635744	1.5851	1967
11.723800	2.7714	3439
11.826125	1.5336	1903
11.923158	1.8301	2271
12.031749	1.5497	1923
12.130116	1.4497	1799
12.253161	1.5013	1863
12.334931	1.7850	2215
12.434962	1.7656	2191
12.525718	1.5207	1887
12.627393	1.7141	2127
12.750142	1.8688	2319
12.826266	1.5529	1927
12.940780	1.5207	1887
13.031646	1.4820	1839
13.122953	1.5207	1887
13.264489	3.2404	4021
13.330165	1.4723	1827
13.430353	1.6432	2039
13.545308	1.2757	1583
13.871774	1.3659	1695
14.047864	1.5013	1863
14.075319	1.6947	2103
14.158356	1.3530	1679
14.183061	1.3982	1735
14.282509	1.6818	2087
14.315411	1.1886	1475
14.418001	1.6012	1987
14.450525	1.6367	2031
14.533876	1.8108	2247
14.632561	1.4046	1743
14.724339	1.6367	2031
14.835364	1.9333	2399
14.947633	1.7850	2215
15.026252	1.1371	1411
15.136983	2.0815	2583
15.232992	2.2459	2787
15.335427	3.2355	4015
15.429525	1.7592	2183
15.533517	2.4941	3095
15.629183	1.6818	2087
15.740337	1.6367	2031
15.853069	1.6786	2083
15.932479	1.2902	1601
16.028024	2.9382	3646
16.139628	1.6303	2023
16.234168	1.4433	1791
16.346186	0.6713	833
16.435540	1.3144	1631
16.530385	1.5787	1959
16.648287	1.3530	1679
16.731196	1.7270	2143
16.834459	1.6883	2095
16.952904	1.9462	2415
17.032706	1.5078	1871
17.128821	1.6012	1987
17.240778	1.7527	2175
17.353271	1.1210	1391
17.431801	1.4497	1799
17.554013	1.7785	2207
17.648519	1.5529	1927
17.744073	1.5497	1923
17.822794	1.5787	1959
17.952074	1.5593	1935
18.030756	1.6174	2007
18.148310	1.7592	2183
18.252964	1.9913	2471
18.331622	1.5142	1879
18.442952	1.5336	1903
18.533797	1.6109	1999
18.653897	1.1983	1487
18.732892	1.5207	1887
18.845188	1.7205	2135
18.924348	1.5851	1967
19.037243	1.5013	1863
19.139598	1.5755	1955
19.241321	1.4755	1831
19.336743	1.5464	1919
19.448448	1.6367	2031
19.527219	1.8817	2335
19.638949	1.4046	1743
19.734435	1.4691	1823
19.849377	1.3949	1731
19.927083	0.7857	975
20.212031	1.5336	1903
20.268391	1.8430	2287
20.458534	1.3208	1639
20.489496	1.5529	1927
20.600007	1.4175	1759
20.632873	0.6826	847
20.710770	1.6045	1991
20.742499	1.8688	2319
20.837368	1.4562	1807
20.932008	1.5787	1959
21.036608	1.4820	1839
21.125150	0.9533	1183
21.230094	1.6496	2047
21.326945	1.8817	2335
21.453025	1.4820	1839
21.532141	1.5755	1955
21.633143	1.5078	1871
21.728161	1.0500	1303
21.840931	1.6754	2079
21.948821	1.8688	2319
22.186436	1.4240	1767
22.234906	1.6367	2031
22.476361	1.4820	1839
22.525437	1.5271	1895
22.764414	1.6367	2031
22.811980	1.7656	2191
23.033838	1.4562	1807
23.064996	1.6303	2023
23.143958	1.4304	1775
23.175706	1.4111	1751
23.255272	1.6625	2063
23.286236	1.6109	1999
23.364782	1.4691	1823
23.396920	1.6496	2047
23.461525	2.0203	2507
23.524134	1.4957	1856
23.650509	1.7141	2127
23.741074	1.4723	1827
23.823572	1.4884	1847
23.935807	1.6625	2063
24.030160	1.8559	2303
24.126171	1.5078	1871
24.240848	1.7076	2119
24.322745	1.4981	1859
24.422090	1.5013	1863
24.527912	1.5755	1955
24.623169	1.4562	1807
24.730649	1.5529	1927
24.822748	1.6560	2055
24.924546	1.7914	2223
25.022709	1.5078	1871
25.122513	1.5078	1871
25.222474	1.6528	2051
25.333143	1.5239	1891
25.451884	1.4981	1859
25.530822	1.7076	2119
25.627433	1.7270	2143
25.723300	1.5497	1923
25.850990	1.5400	1911
25.929850	1.7302	2147
26.025829	1.4562	1807
26.138052	1.5529	1927
26.244065	1.7656	2191
26.337543	1.5722	1951
26.436617	1.5013	1863
26.538454	1.5271	1895
26.634044	1.4820	1839
26.736229	1.5787	1959
26.841986	1.6786	2083
26.937001	1.8172	2255
27.031523	1.4691	1823
27.146351	1.4820	1839
27.227291	1.4957	1856
27.324109	1.1081	1375
27.443252	1.6303	2023
27.530341	1.8333	2275
27.634683	1.4755	1831
27.737023	1.5239	1891
27.833981	1.5593	1935
27.930189	3.2355	4015
28.034008	1.5722	1951
28.136848	1.8237	2263
28.231737	1.4175	1759
28.332885	1.4916	1851
28.422371	1.6786	2083
28.532431	1.4723	1827
28.639472	1.5013	1863
28.731831	1.7592	2183
28.835989	1.5078	1871
28.938853	1.5013	1863
29.030642	1.5078	1871
29.151907	1.6045	1991
29.229966	3.2388	4019
29.325635	1.5787	1959
29.447321	1.8559	2303
29.547365	1.4497	1799
29.641669	1.5207	1887
29.736555	1.5078	1871
29.831346	1.5529	1927
29.926686	1.5529	1927
30.022541	1.0500	1303
30.133260	1.6496	2047
30.228246	1.8623	2311
30.324594	1.4562	1807
30.435319	1.5207	1887
30.531620	1.5481	1921
30.641678	1.5593	1935
30.738480	1.7044	2115
30.834605	1.5336	1903
30.930101	1.5271	1895
31.026142	1.7399	2159
31.137887	1.7560	2179
31.232470	1.4981	1859
31.345261	1.5207	1887
31.439498	1.5593	1935
31.522516	1.6012	1987
31.635000	1.8172	2255
31.730858	2.2653	2811
31.824986	1.6045	1991
31.936821	1.8430	2287
32.046377	1.5996	1985
32.142671	1.4755	1831
32.222172	1.4723	1827
32.350809	1.4820	1839
32.445232	1.7028	2113
32.524060	1.2338	1531
32.634172	1.5271	1895
32.730606	1.7914	2223
32.826645	1.6496	2047
32.922597	1.4820	1839
33.037252	1.5207	1887
33.131362	1.5271	1895
33.227154	1.5787	1959
33.344321	1.5593	1935
33.431910	1.5658	1943
33.538496	1.6560	2055
33.634495	1.8849	2339
33.733729	1.4046	1743
33.823337	1.5207	1887
33.935658	1.5078	1871
34.030651	1.5658	1943
34.126714	1.6109	1999
34.239249	1.6045	1991
34.321492	1.0855	1347
34.438187	1.6303	2023
34.536941	1.9091	2369
34.636134	1.4240	1767
34.727082	1.5271	1895
34.826078	1.5239	1891
34.932876	1.5722	1951
35.029845	1.5996	1985
35.132038	1.7656	2191
35.230808	2.9067	3607
35.321789	1.5851	1967
35.433024	1.7914	2223
35.527735	1.6109	1999
35.623397	1.5078	1871
35.734601	1.5078	1871
35.846280	1.5497	1923
35.925255	1.5964	1981
36.021457	1.7656	2191
36.133572	2.2040	2735
36.226651	1.5497	1923
36.322243	1.7721	2199
36.434367	1.5988	1984
36.529716	1.4981	1859
36.625467	1.5271	1895
36.720839	1.5207	1887
36.833706	1.5658	1943
36.928738	1.7818	2211
37.024632	1.3788	1711
37.151857	1.5078	1871
37.230045	1.7334	2151
37.341863	1.7141	2127
37.437340	1.4691	1823
37.541190	1.5078	1871
37.640872	1.5239	1891
37.740287	1.5722	1951
37.835494	1.7850	2215
37.930597	2.0558	2551
38.026380	1.5239	1891
38.123048	1.7656	2191
38.232285	1.5593	1935
38.323386	1.4562	1807
38.424004	1.4965	1857
38.521036	1.5207	1887
38.651057	1.5078	1871
38.729366	1.2757	1583
38.825829	1.6754	2079
38.937686	1.9107	2371
39.032864	1.4304	1775
39.146300	1.5271	1895
39.224802	1.5336	1903
39.326646	1.6109	1999
39.437387	3.2404	4021
39.563554	1.5722	1951
39.627748	1.8623	2311
39.722419	1.4497	1799
39.829460	1.5207	1887
39.927512	1.5207	1887
40.027240	1.6528	2051
40.127643	1.5497	1923
40.249584	1.4965	1857
40.324214	1.6947	2103
40.425693	1.7914	2223
40.523899	1.4562	1807
40.636661	1.5207	1887
40.728287	1.5432	1915
40.836079	1.6786	2083
40.954313	1.5593	1935
41.035215	1.5078	1871
41.130015	1.6689	2071
41.223955	1.8075	2243
41.323088	1.4691	1823
41.430935	1.5142	1879
41.532939	1.5336	1903
41.623332	1.5787	1959
41.728349	1.7656	2191
41.825847	1.5787	1959
41.923918	1.5271	1895
42.024065	1.7334	2151
42.132234	1.7656	2191
42.240240	1.4691	1823
42.341356	1.4981	1859
42.427359	1.5013	1863
42.551971	1.5497	1923
42.627754	1.7076	2119
42.721340	1.5481	1921
42.843706	1.5078	1871
42.922727	1.7334	2151
43.021286	1.7850	2215
43.150443	1.4626	1815
43.242452	1.5207	1887
43.325780	1.5464	1919
43.434592	1.7592	2183
43.525289	1.5481	1921
43.627471	1.5336	1903
43.727699	1.7656	2191
43.837227	1.7656	2191
43.932274	1.4691	1823
44.029334	1.5142	1879
44.123129	1.5336	1903
44.233925	1.5787	1959
44.332780	1.7270	2143
44.430452	1.5593	1935
44.532405	1.5078	1871
44.623403	1.6689	2071
44.724787	1.8752	2327
44.849714	1.4497	1799
44.947420	1.5078	1871
45.021599	1.5078	1871
45.121280	1.5497	1923
45.223422	1.5529	1927
45.330532	1.5658	1943
45.421782	3.2420	4023
45.524918	1.6303	2023
45.636191	1.8430	2287
45.730777	1.5078	1871
45.829123	1.5593	1935
45.921422	1.5529	1927
46.039919	1.5851	1967
46.121500	1.6109	1999
46.230932	1.6174	2007
46.328119	2.6489	3287
46.430146	1.6045	1991
46.523419	1.9091	2369
46.636580	1.4626	1815
46.748275	1.5078	1871
46.824203	1.4046	1743
46.927891	1.3466	1671
47.052925	1.9429	2411
47.139163	1.6883	2095
47.230851	0.9920	1231
47.321572	1.4884	1847
47.429688	2.0171	2503
47.530010	1.5013	1863
47.629526	1.2112	1503
47.722548	1.6238	2015
47.829073	1.6625	2063
47.952655	1.0758	1335
48.035549	1.3659	1695
48.141953	1.6625	2063
48.221310	1.7592	2183
48.332899	1.6496	2047
48.428384	1.2370	1535
48.539670	1.9139	2375
48.636039	0.5988	743
48.730682	1.5078	1871
48.824371	1.8059	2241
48.953158	1.6012	1987
49.031896	1.4981	1859
49.129197	1.6045	1991
49.240689	1.8172	2255
49.352477	2.8745	3567
49.433137	1.7527	2175
49.544517	1.7818	2211
49.623157	1.1919	1479
49.751593	1.5529	1927
49.845859	1.5207	1887
49.942429	2.2717	2819
50.036523	1.6045	1991
50.133219	1.4240	1767
50.244191	1.6238	2015
50.323992	1.5593	1935
50.452518	1.5207	1887
50.547223	1.5271	1895
50.626538	1.5529	1927
50.722503	1.3466	1671
50.832923	1.5529	1927
50.927054	1.5996	1985
51.021971	1.7141	2127
51.134354	1.3949	1731
51.229861	1.3982	1735
51.325479	1.6818	2087
51.421250	1.6818	2087
51.532873	1.5593	1935
51.643281	1.6109	1999
51.722728	2.2621	2807
51.835738	1.3530	1679
51.931624	1.7914	2223
52.027439	1.8237	2263
52.123542	1.2434	1543
52.250741	1.5529	1927
52.329209	1.5400	1911
52.425721	1.8559	2303
52.537168	1.1274	1399
52.631236	1.7785	2207
52.743137	1.8172	2255
52.822245	1.3144	1631
52.934817	1.1403	1415
53.029064	1.6786	2083
53.141628	1.9091	2369
53.251117	1.1467	1423
53.346671	1.5722	1951
53.427660	1.6560	2055
53.522775	1.4916	1851
53.633614	1.3273	1647
53.746136	1.6528	2051
53.825119	1.5529	1927
53.921529	1.5593	1935
54.032889	1.6109	1999
54.144611	1.4175	1759
54.223405	3.2404	4021
54.351505	1.5593	1935
54.430126	1.8011	2235
54.527242	1.8623	2311
54.623042	0.9920	1231
54.735633	1.7141	2127
54.830090	0.9308	1155
54.926144	1.4755	1831
55.037827	1.8591	2307
55.132589	1.5078	1871
55.243990	1.4820	1839
55.321673	1.5529	1927
55.434401	1.3925	1728
55.527831	1.6560	2055
55.639057	1.5400	1911
55.733830	1.5078	1871
55.845934	1.6303	2023
55.941914	1.3530	1679
56.020341	1.5722	1951
56.132851	3.0034	3727
56.243796	1.8495	2295
56.323075	1.6754	2079
56.436023	1.4965	1857
56.532340	1.4884	1847
56.626358	1.5497	1923
56.722915	3.2388	4019
56.834264	1.5271	1895
56.945886	1.6754	2079
57.023379	1.4755	1831
57.135267	1.5529	1927
57.230232	1.7463	2167
57.341258	1.4175	1759
57.436176	1.3530	1679
57.549057	1.6109	1999
57.644819	1.5593	1935
57.739808	1.5013	1863
57.836206	1.5078	1871
57.931246	1.5078	1871
58.026979	2.9325	3639
58.122087	1.5996	1985
58.234604	1.7141	2127
58.328269	1.5013	1863
58.423846	1.5481	1921
58.552690	1.6560	2055
58.630492	1.5078	1871
58.725966	1.5529	1927
58.837711	1.6238	2015
58.932611	1.6883	2095
59.044510	1.5013	1863
59.122235	1.5207	1887
59.251240	1.7012	2111
59.329705	1.4304	1775
59.426147	1.5013	1863
59.537628	1.7076	2119
59.633512	1.6045	1991
59.729033	1.4626	1815
59.823829	1.4562	1807
59.920854	1.4626	1815
60.033577	0.8566	1063
60.127177	1.5996	1985
60.223343	1.7495	2171
60.334856	1.4433	1791
60.430226	1.4981	1859
60.525063	1.5996	1985
60.620491	3.2404	4021
60.733042	1.5078	1871
60.828488	1.7141	2127
60.925130	1.4240	1767
61.036303	1.5207	1887
61.131202	1.6560	2055
61.227283	1.5207	1887
61.322862	1.4497	1799
61.434665	1.6689	2071
61.529806	1.5988	1984
61.640913	1.5078	1871
61.735572	1.5078	1871
61.831379	1.7076	2119
61.927150	1.5013	1863
62.022343	1.4820	1839
62.134324	1.7028	2113
62.230052	1.6303	2023
62.341521	1.5271	1895
62.436619	1.5207	1887
62.548462	1.5497	1923
62.626728	1.6045	1991
62.738987	1.7270	2143
62.851311	3.2404	4021
62.945837	1.5336	1903
63.025337	1.7334	2151
63.120481	1.4755	1831
63.248836	1.5078	1871
63.327382	1.5078	1871
63.440458	1.5078	1871
63.533812	1.5593	1935
63.630112	1.5722	1951
63.725467	1.6560	2055
63.821011	1.6303	2023
63.931904	1.7656	2191
64.028804	1.4562	1807
64.124921	1.5336	1903
64.220985	1.5207	1887
64.347767	1.5529	1927
64.425350	1.6560	2055
64.521604	1.5593	1935
64.648575	1.6045	1991
64.728057	1.6496	2047
64.840320	1.7656	2191
64.935676	1.4497	1799
65.030615	1.5078	1871
65.142052	1.4981	1859
65.236389	1.5529	1927
65.332788	1.6625	2063
65.443554	1.5529	1927
65.523261	1.5336	1903
65.651076	1.7044	2115
65.729663	1.8301	2271
65.826582	1.4433	1791
65.938294	1.4820	1839
66.034581	1.5013	1863
66.130429	1.6560	2055
66.243281	3.2420	4023
66.322903	1.5755	1955
66.435146	1.8688	2319
66.545229	1.4240	1767
66.624054	1.5013	1863
66.720334	1.5207	1887
66.832005	1.6367	2031
66.927099	1.5271	1895
67.023619	1.5755	1955
67.135687	1.6367	2031
67.247140	1.8108	2247
67.325191	1.4046	1743
67.420254	1.5013	1863
67.531546	1.5239	1891
67.626554	1.6625	2063
67.738978	1.5529	1927
67.833992	1.4965	1857
67.929601	1.6786	2083
68.041794	1.8059	2241
68.136781	1.4368	1783
68.248294	1.5013	1863
68.327017	1.5078	1871
68.423305	1.5988	1984
68.535437	1.5497	1923
68.631039	1.6045	1991
68.726565	1.6012	1987
68.821796	1.8946	2351
68.950538	1.3466	1671
69.028576	1.4562	1807
69.124059	1.4981	1859
69.236807	1.7076	2119
69.331808	1.1661	1447
69.427927	1.5078	1871
69.523919	1.8051	2240
69.652328	1.5658	1943
69.731602	1.4691	1823
69.844266	1.5078	1871
69.923659	1.5142	1879
70.036193	1.6625	2063
70.130394	1.5593	1935
70.243944	1.4981	1859
70.322486	1.6560	2055
70.434278	1.7544	2177
70.546159	1.4240	1767
70.625082	1.3144	1631
70.721358	1.5336	1903
70.832770	1.5787	1959
70.928000	1.8237	2263
71.022924	1.5336	1903
71.134861	1.5787	1959
71.231090	1.7721	2199
71.326135	1.7656	2191
71.422799	1.4401	1787
71.534213	1.5078	1871
71.630622	1.4755	1831
71.726194	1.5529	1927
71.838136	1.6496	2047
71.934178	1.5593	1935
72.028492	1.5271	1895
72.124214	1.6560	2055
72.235722	1.9655	2439
72.331637	1.3208	1639
72.426907	1.4755	1831
72.522598	1.4562	1807
72.635128	1.5722	1951
72.745261	1.5271	1895
72.823710	1.5658	1943
72.935945	1.6754	2079
73.031947	1.8946	2351
73.143001	1.3530	1679
73.222192	1.4820	1839
73.334420	1.5078	1871
73.429765	1.7141	2127
73.541407	1.4497	1799
73.636096	1.5013	1863
73.732797	1.7914	2223
73.828536	1.5336	1903
73.939535	1.4465	1795
74.034333	1.5013	1863
74.146011	1.6496	2047
74.241014	1.5207	1887
74.320093	1.5207	1887
74.432529	1.6754	2079
74.527176	1.9091	2369
74.639569	1.3933	1729
74.734741	1.5013	1863
74.846220	1.5013	1863
74.941506	1.4981	1859
75.021809	3.2033	3975
75.133128	1.5755	1955
75.229092	1.9333	2399
75.325070	1.3208	1639
75.420616	1.4562	1807
75.532167	1.4884	1847
75.643757	1.4981	1859
75.722681	3.2355	4015
75.835738	1.5722	1951
75.947042	1.9107	2371
76.025659	1.4175	1759
76.120382	1.5078	1871
76.231881	1.5336	1903
76.328681	1.7302	2147
76.424198	1.5239	1891
76.535835	1.4691	1823
76.631076	1.7141	2127
76.743595	1.7044	2115
76.822385	1.4449	1793
76.934890	1.4820	1839
77.045682	1.5207	1887
77.126358	1.6883	2095
77.221598	2.2975	2851
77.333119	1.4820	1839
77.444381	1.7656	2191
77.522938	1.5013	1863
77.635509	1.4755	1831
77.730081	1.5078	1871
77.843141	1.5529	1927
77.922476	1.7141	2127
78.034955	1.4562	1807
78.146370	1.5271	1895
78.225296	1.7914	2223
78.337477	1.5658	1943
78.432884	1.4691	1823
78.526433	1.4981	1859
78.623615	1.6367	2031
78.735220	1.5207	1887
78.830926	1.5658	1943
78.925365	1.6496	2047
79.037531	1.8688	2319
79.148408	1.4175	1759
79.228018	1.4981	1859
79.340463	1.5239	1891
79.435064	1.7028	2113
79.545509	1.5529	1927
79.625336	1.4626	1815
79.720938	1.7044	2115
79.832036	1.7592	2183
79.927045	1.4562	1807
80.041263	1.5013	1863
80.135725	1.5271	1895
80.247976	1.6625	2063
80.327636	3.2291	4007
80.424910	1.5481	1921
80.536588	1.8301	2271
80.648433	1.4562	1807
80.727377	1.4626	1815
80.823717	1.4562	1807
80.951645	1.5996	1985
81.030297	1.5078	1871
81.143527	1.4884	1847
81.223133	1.7205	2135
81.320029	1.8172	2255
81.432555	1.4304	1775
81.527539	1.4820	1839
81.638965	1.6754	2079
81.749211	1.5013	1863
81.845467	1.4562	1807
81.923982	1.7028	2113
82.036158	1.6883	2095
82.130956	1.4240	1767
82.243802	1.5013	1863
82.322929	1.5336	1903
82.435147	1.5207	1887
82.529822	1.3595	1687
82.624921	1.6012	1987
82.720309	1.9139	2375
82.849250	1.3982	1735
82.927846	1.5207	1887
83.024811	1.5271	1895
83.135678	1.5755	1955
83.231671	1.7076	2119
83.326694	1.5916	1975
83.421709	1.5013	1863
83.532660	1.6883	2095
83.644604	1.8946	2351
83.723353	1.4304	1775
83.836053	1.4965	1857
83.946471	1.5013	1863
84.025816	1.5456	1918
84.138590	1.7012	2111
84.233664	2.3201	2879
84.330021	1.5481	1921
84.441170	1.8527	2299
84.519771	1.4981	1859
84.647098	1.4755	1831
84.725599	1.5207	1887
84.836909	1.5497	1923
84.931864	1.6045	1991
85.044639	1.7785	2207
85.123169	1.7914	2223
85.234481	1.5336	1903
85.330719	1.7818	2211
85.441753	1.5497	1923
85.520476	1.4497	1799
85.633261	1.4820	1839
85.728361	1.5207	1887
85.824253	1.5529	1927
85.935290	1.6045	1991
86.030270	1.6432	2039
86.126542	1.6045	1991
86.238835	1.3595	1687
86.350329	1.6109	1999
86.429989	1.9139	2375
86.526149	1.3949	1731
86.621628	1.5142	1879
86.733433	1.4916	1851
86.827930	1.5400	1911
86.923238	1.5787	1959
87.035032	1.6045	1991
87.147575	1.5787	1959
87.242329	1.9397	2407
87.322322	1.6432	2039
87.434308	1.9397	2407
87.528265	1.3724	1703
87.624070	1.4884	1847
87.750128	1.5078	1871
87.829605	1.5529	1927
87.925960	1.6045	1991
88.021477	1.7205	2135
88.149265	1.6045	1991
88.242974	1.4755	1831
88.322072	1.6625	2063
88.448148	1.8623	2311
88.527244	1.3788	1711
88.622180	1.4981	1859
88.732189	1.5013	1863
88.844626	1.5400	1911
88.923511	1.5916	1975
89.034327	1.7302	2147
89.129566	1.6045	1991
89.225695	1.4723	1827
89.337696	1.6818	2087
89.432667	1.8430	2287
89.528671	1.4175	1759
89.624148	1.5013	1863
89.735910	1.5207	1887
89.846421	1.5593	1935
89.941280	1.5996	1985
90.021165	1.7914	2223
90.132418	1.3273	1647
90.227402	1.5142	1879
90.340594	1.7399	2159
90.435305	1.6689	2071
90.531121	1.4175	1759
90.626149	1.4691	1823
90.739061	1.5142	1879
90.834287	1.6528	2051
90.945710	1.5529	1927
91.024030	1.5400	1911
91.120104	1.7044	2115
91.232360	1.9091	2369
91.344095	1.4240	1767
91.423132	1.5207	1887
91.535130	1.5481	1921
91.631415	1.5988	1984
91.725221	1.5996	1985
91.837200	3.2420	4023
91.947774	1.5497	1923
92.027169	1.8333	2275
92.123611	1.4304	1775
92.235648	1.4884	1847
92.330555	1.5078	1871
92.425184	1.5336	1903
92.537071	1.5722	1951
92.633868	1.5755	1955
92.729523	2.7601	3425
92.841317	1.5851	1967
92.936773	1.8623	2311
93.032267	1.4046	1743
93.143328	1.4981	1859
93.222541	1.5078	1871
93.335900	1.5593	1935
93.430053	1.5658	1943
93.525729	1.5593	1935
93.620880	1.5078	1871
93.733220	1.6238	2015
93.828805	1.9139	2375
93.940526	1.3530	1679
94.036032	1.4691	1823
94.147631	1.4755	1831
94.227016	1.6270	2019
94.324060	1.5207	1887
94.434922	1.5787	1959
94.530367	1.6625	2063
94.642296	1.8946	2351
94.720502	1.4207	1763
94.833175	1.5207	1887
94.928053	1.5336	1903
95.023460	1.5722	1951
95.135849	1.5787	1959
95.247501	3.2242	4001
95.325337	1.5722	1951
95.421094	1.8623	2311
95.533103	1.3982	1735
95.628719	1.4965	1857
95.740864	1.5013	1863
95.819465	1.5497	1923
95.932403	1.5851	1967
96.042107	1.5851	1967
96.121034	2.7520	3415
96.233915	1.5916	1975
96.330058	1.8881	2343
96.424470	1.4046	1743
96.520834	1.4755	1831
96.632885	1.4957	1856
96.727418	1.5078	1871
96.822858	1.5593	1935
96.935060	1.6786	2083
97.029264	3.2355	4015
97.124517	1.5529	1927
97.219455	1.8495	2295
97.346977	1.4820	1839
97.425302	1.4562	1807
97.537072	1.4884	1847
97.632622	1.5464	1919
97.728242	1.5787	1959
97.824769	1.6012	1987
97.935028	3.2420	4023
98.047633	1.5658	1943
98.126098	1.8495	2295
98.238022	1.4465	1795
98.333401	1.4965	1857
98.445737	1.5013	1863
98.539626	1.5464	1919
98.651689	1.5851	1967
98.730476	1.6109	1999
98.842422	1.6496	2047
98.921314	1.6464	2043
99.033605	3.2355	4015
99.145055	1.5787	1959
99.223446	1.8688	2319
99.335895	1.4175	1759
99.430582	1.4820	1839
99.527312	1.5013	1863
99.622314	1.5336	1903
99.748624	1.5948	1979
99.828820	1.6109	1999
99.925044	1.6109	1999
100.034443	3.2404	4021
100.129900	1.6109	1999
100.242634	1.9204	2383
100.320735	1.4175	1759
100.432462	1.4691	1823
100.526769	1.5013	1863
100.638702	1.5464	1919
100.750684	1.5593	1935
100.829740	1.6818	2087
100.926551	1.5722	1951
101.037920	1.4884	1847
101.133473	1.6174	2007
101.229162	1.8881	2343
101.341014	1.3659	1695
101.435704	1.5078	1871
101.532331	1.5207	1887
101.643983	1.5593	1935
101.739125	1.5996	1985
101.834381	1.6303	2023
101.930410	1.8172	2255
102.041976	1.3982	1735
102.121822	1.4820	1839
102.232894	1.7044	2115
102.328255	1.7334	2151
102.425171	1.3949	1731
102.537251	1.4497	1799
102.648184	1.4965	1857
102.727054	1.5271	1895
102.839466	1.5996	1985
102.950608	1.5722	1951
103.029494	2.8938	3591
103.125557	1.5787	1959
103.220838	1.8849	2339
103.333345	1.3982	1735
103.444119	1.5078	1871
103.522684	1.5400	1911
103.651173	1.5529	1927
103.745319	1.6012	1987
103.824616	1.6754	2079
103.921171	1.5980	1983
104.020131	1.4626	1815
104.132965	1.6109	1999
104.244026	1.8881	2343
104.322878	1.3530	1679
104.435492	1.5078	1871
104.530152	1.5207	1887
104.626515	1.5497	1923
104.737248	1.5996	1985
104.832887	1.6270	2019
104.944554	3.2420	4023
105.023868	1.5336	1903
105.135945	1.7979	2231
105.245749	1.4562	1807
105.325039	1.4691	1823
105.420113	1.5013	1863
105.531511	1.5400	1911
105.627058	1.5916	1975
105.737975	1.7334	2151
105.834202	1.5916	1975
105.945262	1.4691	1823
106.024288	1.6625	2063
106.120797	1.8591	2307
106.232042	1.3949	1731
106.327536	1.4562	1807
106.439587	1.4755	1831
106.535792	1.6754	2079
106.632317	1.5013	1863
106.727237	1.4562	1807
106.838735	1.7399	2159
106.933317	1.8075	2243
107.044935	1.4465	1795
107.123652	1.5207	1887
107.219653	1.5497	1923
107.330716	1.5529	1927
107.426259	2.6360	3271
107.538348	1.5851	1967
107.650687	1.8688	2319
107.730341	1.3982	1735
107.825717	1.5013	1863
107.920999	1.5078	1871
108.033005	1.6786	2083
108.128428	1.5593	1935
108.224268	1.4723	1827
108.319815	1.6625	2063
108.432342	1.8059	2241
108.526595	1.4175	1759
108.639060	1.4562	1807
108.734826	1.4884	1847
108.845920	1.6303	2023
108.925359	1.5239	1891
109.036866	1.5013	1863
109.131323	1.6689	2071
109.242573	1.9107	2371
109.322196	1.4562	1807
109.434354	1.5142	1879
109.529102	1.5078	1871
109.641326	1.5722	1951
109.736261	3.2404	4021
109.832093	1.5497	1923
109.927591	1.8172	2255
110.024592	1.4820	1839
110.134984	1.4981	1859
110.245854	1.5142	1879
110.325341	1.5400	1911
110.421102	1.7205	2135
110.533066	1.3659	1695
110.627241	1.4755	1831
110.721487	1.7076	2119
110.848187	1.7044	2115
110.943318	1.4562	1807
111.022872	1.5239	1891
111.150163	1.5464	1919
111.229930	1.5916	1975
111.341355	1.6818	2087
111.420251	3.2355	4015
111.547867	1.5336	1903
111.625974	1.8043	2239
111.722594	1.5336	1903
111.835188	1.4723	1827
111.947164	1.4820	1839
112.026664	1.5078	1871
112.123417	1.5529	1927
112.235153	1.5207	1887
112.330344	1.2918	1603
112.425219	1.6012	1987
112.521210	1.9010	2359
112.634739	1.4046	1743
112.729254	1.4981	1859
112.841569	1.5142	1879
112.919185	1.5497	1923
113.031428	1.5529	1927
113.127460	3.2323	4011
113.223992	1.5593	1935
113.350955	1.8559	2303
113.430062	1.3982	1735
113.527036	1.5013	1863
113.620932	1.4981	1859
113.732933	1.5593	1935
113.828112	1.7270	2143
113.925071	1.5787	1959
114.035422	1.4755	1831
114.130636	1.6883	2095
114.226131	1.8108	2247
114.322991	1.4207	1763
114.434351	1.5078	1871
114.528775	1.5271	1895
114.624250	1.5722	1951
114.721144	1.6528	2051
114.833267	1.5722	1951
114.928257	1.4981	1859
115.024491	1.5916	1975
115.119176	1.8559	2303
115.231477	1.4175	1759
115.326636	1.4691	1823
115.438915	1.4981	1859
115.534151	1.5464	1919
115.646451	1.6238	2015
115.725356	1.5400	1911
115.822153	1.4884	1847
115.933213	1.6883	2095
116.028094	1.8591	2307
116.123822	1.4240	1767
116.250733	1.5239	1891
116.329638	1.5239	1891
116.425906	1.5851	1967
116.521766	1.7141	2127
116.634154	3.2162	3991
116.728162	1.5336	1903
116.824004	1.7979	2231
116.935630	1.5529	1927
117.046925	1.4755	1831
117.126081	1.5078	1871
117.238300	1.5481	1921
117.333572	1.5787	1959
117.429810	1.6012	1987
117.525605	2.9680	3683
117.621899	1.5851	1967
117.732917	1.8849	2339
117.828891	1.3788	1711
117.940888	1.4497	1799
118.034708	1.4691	1823
118.129563	1.5336	1903
118.241699	1.7302	2147
118.319524	1.5497	1923
118.431408	1.4820	1839
118.526403	1.7076	2119
118.621323	1.7785	2207
118.731991	1.4046	1743
118.826675	1.5013	1863
118.937855	1.5271	1895
119.050128	1.5722	1951
119.128692	1.7076	2119
119.224732	1.5996	1985
119.335567	1.4981	1859
119.429575	1.6625	2063
119.541929	1.9083	2368
119.620252	1.3982	1735
119.733290	1.5013	1863
119.827792	1.5207	1887
119.940310	1.5529	1927
120.018520	1.6012	1987
120.131074	1.7399	2159
120.225363	2.8036	3479
120.321508	1.5207	1887
120.432122	1.7656	2191
120.544372	1.5593	1935
120.623501	1.4497	1799
120.719311	1.4820	1839
120.832042	1.5239	1891
120.927108	1.5658	1943
121.023175	1.6947	2103
121.119124	1.5787	1959
121.230762	1.5722	1951
121.325745	1.6625	2063
121.437801	1.9623	2435
121.533218	1.3788	1711
121.644908	1.4981	1859
121.723410	1.5078	1871
121.820505	1.5529	1927
121.932166	1.6947	2103
122.026132	1.5593	1935
122.121748	1.4691	1823
122.250288	1.6528	2051
122.345309	1.9107	2371
122.425849	1.3788	1711
122.537216	1.5013	1863
122.632479	1.5207	1887
122.743515	1.5529	1927
122.822479	1.6045	1991
122.918680	1.5787	1959
123.030953	3.2420	4023
123.141904	1.5593	1935
123.237663	1.8430	2287
123.332445	1.4240	1767
123.428539	1.4820	1839
123.523458	1.5013	1863
123.634683	1.5481	1921
123.745863	1.5787	1959
123.825328	1.7656	2191
123.921632	1.5400	1911
124.033820	1.4884	1847
124.128377	1.7028	2113
124.239891	1.7914	2223
124.327356	1.4046	1743
124.431486	1.4820	1839
124.529082	1.5013	1863
124.648294	1.5271	1895
124.743300	1.6560	2055
124.839615	1.5722	1951
124.919251	1.5207	1887
125.030795	1.6496	2047
125.127454	1.9204	2383
125.238589	1.3853	1719
125.334761	1.5078	1871
125.445474	1.5142	1879
125.524577	1.5722	1951
125.620140	1.6045	1991
125.747163	1.6109	1999
125.842846	3.2355	4015
125.937690	1.5658	1943
126.049172	1.8881	2343
126.143968	1.4240	1767
126.223330	1.4820	1839
126.334881	1.4965	1857
126.445441	1.5336	1903
126.524851	1.5722	1951
126.620287	1.7270	2143
126.747983	2.6682	3311
126.826921	1.5078	1871
126.939601	1.7914	2223
127.034593	1.5529	1927
127.146391	1.4240	1767
127.225551	1.4691	1823
127.320931	1.5271	1895
127.432885	1.6012	1987
127.528597	1.5529	1927
127.624480	1.1371	1411
127.721828	1.6303	2023
127.832795	1.9365	2403
127.928445	1.3982	1735
128.039985	1.5013	1863
128.135497	1.5078	1871
128.231738	1.5529	1927
128.326481	1.6883	2095
128.422861	1.5755	1955
128.534498	1.5851	1967
128.630401	1.6432	2039
128.742176	1.9590	2431
128.820703	1.3788	1711
128.933276	1.5013	1863
129.026978	1.5013	1863
129.123517	1.5593	1935
129.218810	1.7076	2119
129.346441	2.9680	3683
129.441959	1.5271	1895
129.520827	1.7914	2223
129.632819	1.5336	1903
129.728508	1.4497	1799
129.840102	1.4981	1859
129.918406	1.5142	1879
130.030081	1.5593	1935
130.123970	1.5787	1959
130.235371	3.2355	4015
130.330836	1.5593	1935
130.427147	1.9083	2368
130.538838	1.4046	1743
130.634128	1.4691	1823
130.746706	1.5013	1863
130.825529	1.5481	1921
130.921069	1.6625	2063
131.030393	1.5481	1921
131.141731	1.5239	1891
131.221240	1.6109	1999
131.332905	1.9365	2403
131.427454	1.3788	1711
131.539439	1.5013	1863
131.634874	1.5013	1863
131.729920	1.5529	1927
131.825875	1.5916	1975
131.937721	1.5851	1967
132.032958	3.2355	4015
132.127943	1.5658	1943
132.239034	1.8881	2343
132.333865	1.4175	1759
132.430940	1.4820	1839
132.525077	1.4755	1831
132.621261	1.5142	1879
132.731925	1.6528	2051
132.826919	1.5497	1923
132.922630	1.4820	1839
133.034406	1.6754	2079
133.129384	1.9139	2375
133.225094	1.3788	1711
133.320942	1.5078	1871
133.432209	1.5078	1871
133.527507	1.5593	1935
133.623847	1.5593	1935
133.734727	3.2355	4015
133.829945	1.5787	1959
133.941537	1.8849	2339
134.020963	1.4046	1743
134.132307	1.4965	1857
134.227994	1.5013	1863
134.323200	1.5336	1903
134.419710	1.5851	1967
134.531456	1.7463	2167
134.625511	1.8623	2311
134.720811	1.5078	1871
134.847420	1.7656	2191
134.926651	1.6109	1999
135.023544	1.4207	1763
135.118478	1.4691	1823
135.229938	1.4916	1851
135.325512	1.5529	1927
135.420384	1.5529	1927
135.533306	2.9744	3691
135.644544	1.5988	1984
135.723993	1.9204	2383
135.819346	1.4111	1751
135.932682	1.5142	1879
136.027787	1.5207	1887
136.124001	1.5529	1927
136.220228	1.5851	1967
136.332071	1.5787	1959
136.428325	3.2404	4021
136.538958	1.5497	1923
136.619077	1.8559	2303
136.729873	1.4368	1783
136.824793	1.4691	1823
136.920012	1.5013	1863
137.033047	1.5271	1895
137.129048	1.5787	1959
137.225053	1.7399	2159
137.319250	1.8527	2299
137.431987	1.5078	1871
137.527653	1.7721	2199
137.639191	1.6045	1991
137.718929	1.4240	1767
137.830557	1.4884	1847
137.925861	1.5207	1887
138.021684	1.5593	1935
138.132533	1.5787	1959
138.226640	3.2323	4011
138.337670	1.6174	2007
138.433010	1.9268	2391
138.527710	1.4240	1767
138.639413	1.5013	1863
138.734815	1.5013	1863
138.846782	1.5336	1903
138.925256	1.5722	1951
139.022314	1.6109	1999
139.133723	1.6174	2007
139.229769	3.2291	4007
139.325874	1.5593	1935
139.437652	1.8946	2351
139.532933	1.4046	1743
139.628748	1.4465	1795
139.724277	1.4755	1831
139.835731	1.5078	1871
139.946938	1.5593	1935
140.041985	1.7850	2215
140.120851	1.5400	1911
140.232994	1.5013	1863
140.344097	1.7205	2135
140.422969	1.8172	2255
140.518987	1.3982	1735
140.629451	1.5142	1879
140.724966	1.5013	1863
140.820774	1.5497	1923
140.932887	1.5851	1967
141.027750	1.7399	2159
141.122773	1.6012	1987
141.218418	1.4820	1839
141.329785	1.6625	2063
141.426777	1.9139	2375
141.537875	1.3933	1729
141.633252	1.5013	1863
141.728969	1.5078	1871
141.823808	1.5529	1927
141.918897	1.6012	1987
142.029903	1.7141	2127
142.125518	1.6045	1991
142.220958	1.5593	1935
142.332522	1.5948	1979
142.444295	2.0622	2559
142.523748	1.5078	1871
142.619965	1.5529	1927
142.731636	1.5271	1895
142.842566	1.6109	1999
142.921339	1.6432	2039
143.033474	1.5851	1967
143.128789	3.2420	4023
143.224352	1.5207	1887
143.319619	1.7818	2211
143.430960	1.4175	1759
143.527024	1.4562	1807
143.639768	1.4433	1791
143.734528	1.4497	1799
143.830678	1.5497	1923
143.925643	3.2388	4019
144.021484	1.4981	1859
144.133019	1.8108	2247
144.227597	1.5013	1863
144.323327	1.4046	1743
144.420125	1.5464	1919
144.531760	1.7076	2119
144.626620	1.5658	1943
144.737441	1.4981	1859
144.832742	1.6625	2063
144.945439	1.9107	2371
145.023826	1.4304	1775
145.120153	1.4965	1857
145.232333	1.5078	1871
145.327881	1.4755	1831
145.422923	1.5078	1871
145.517933	1.5593	1935
145.629392	1.8817	2335
145.739925	1.3949	1731
145.835199	1.4755	1831
145.947035	1.5529	1927
146.042260	1.4691	1823
146.138671	1.0565	1311
146.217534	1.6012	1987
146.330335	1.9091	2369
146.425412	1.3724	1703
146.521475	1.5013	1863
146.633223	1.9204	2383
146.744000	1.1467	1423
146.824403	1.5207	1887
146.937124	1.5078	1871
147.032809	1.5078	1871
147.128563	1.4111	1751
147.225103	1.6625	2063
147.319578	1.3595	1687
147.432163	3.2323	4011
147.527686	1.5400	1911
147.622198	1.8075	2243
147.733347	1.3724	1703
147.827957	1.5464	1919
147.939013	1.6754	2079
148.018502	1.4965	1857
148.131387	1.5207	1887
148.226667	1.5658	1943
148.338076	1.8075	2243
148.433507	1.3788	1711
148.529100	1.4981	1859
148.625759	1.5464	1919
148.719881	1.5078	1871
148.832233	1.6109	1999
148.927142	1.6496	2047
149.021967	1.8237	2263
149.117601	1.4562	1807
149.246520	1.5755	1955
149.324926	1.7544	2177
149.421939	1.8075	2243
149.532998	1.5078	1871
149.644514	1.5529	1927
149.740414	1.5078	1871
149.819606	1.5013	1863
149.947536	1.6883	2095
150.026643	1.5722	1951
150.121816	1.4884	1847
150.217397	1.4562	1807
150.329834	1.7914	2223
150.440936	1.2563	1559
150.519619	1.5271	1895
150.631877	1.6754	2079
150.727169	1.5497	1923
150.839009	1.6045	1991
150.917888	3.2355	4015
151.029658	1.3530	1679
151.124699	2.0751	2575
151.220568	1.5336	1903
151.332011	1.5593	1935
151.443782	1.4465	1795
151.521643	1.5988	1984
151.633848	1.3933	1729
151.728857	1.4046	1743
151.825141	1.6464	2043
151.921191	1.7914	2223
152.034005	1.3659	1695
152.129152	1.5207	1887
152.225439	1.6979	2107
152.336678	1.6625	2063
152.447628	1.4465	1795
152.526969	1.6560	2055
152.640585	1.8333	2275
152.734815	1.2434	1543
152.830610	1.4240	1767
152.926698	1.9365	2403
153.023011	1.1870	1473
153.119404	1.4304	1775
153.246341	1.5658	1943
153.341501	1.6560	2055
153.420785	1.4562	1807
153.548478	1.5239	1891
153.626776	1.5013	1863
153.722418	3.1324	3887
153.833396	1.5658	1943
153.944554	1.8301	2271
154.023692	1.4884	1847
154.135469	1.4175	1759
154.230870	1.6174	2007
154.326256	1.5207	1887
154.420955	1.4562	1807
154.532681	1.7463	2167
154.627467	1.5529	1927
154.723327	1.5593	1935
154.817763	1.6109	1999
154.931477	2.8810	3575
155.025357	1.6560	2055
155.121522	1.7141	2127
155.233173	1.3933	1729
155.329111	1.4820	1839
155.440843	1.6625	2063
155.536638	1.5658	1943
155.648309	1.4562	1807
155.725834	1.6560	2055
155.821899	1.4820	1839
155.949885	1.4981	1859
156.044939	1.6174	2007
156.123878	1.4626	1815
156.220894	1.5336	1903
156.347621	1.5787	1959
156.427100	1.7205	2135
156.540156	1.5271	1895
156.618867	1.5400	1911
156.747875	1.5336	1903
156.826479	1.5271	1895
156.923411	3.2420	4023
157.018522	1.5142	1879
157.131027	1.6818	2087
157.241908	1.4820	1839
157.337324	1.4884	1847
157.432832	1.4723	1827
157.528215	1.5400	1911
157.623862	1.5529	1927
157.718728	3.2355	4015
157.831313	1.5593	1935
157.940618	1.6883	2095
158.019637	1.5336	1903
158.130356	1.5013	1863
158.241256	1.5142	1879
158.320736	1.5988	1984
158.446994	1.7656	2191
158.526258	1.4111	1751
158.637593	1.5400	1911
158.748708	1.6818	2087
158.827690	1.6206	2011
158.922001	1.5142	1879
159.017974	1.5529	1927
159.125043	1.5851	1967
159.219984	1.6625	2063
159.330434	1.5593	1935
159.425909	1.4884	1847
159.521186	1.6625	2063
159.630818	1.6818	2087
159.724467	1.5336	1903
159.835267	1.5207	1887
159.946400	1.5593	1935
160.025894	1.6883	2095
160.123020	1.5851	1967
160.221968	1.4465	1795
160.337555	1.6528	2051
160.418705	1.7270	2143
160.521462	1.5336	1903
160.648580	1.5593	1935
160.728658	1.5497	1923
160.823730	1.7592	2183
160.934332	1.8237	2263
161.046024	1.5013	1863
161.118414	1.6883	2095
161.219961	1.5996	1985
161.330531	1.5013	1863
161.425987	1.5336	1903
161.520212	1.6464	2043
161.631349	1.6174	2007
161.742536	1.4755	1831
161.820659	1.6528	2051
161.937998	1.6947	2103
162.017453	1.6270	2019
162.129386	1.5013	1863
162.223766	1.7012	2111
162.323077	1.4240	1767
162.418398	1.4691	1823
162.530072	1.6238	2015
162.641745	2.0171	2503
162.720856	1.5722	1951
162.832672	1.4304	1775
162.927707	1.7463	2167
163.039335	3.2355	4015
163.118507	1.7463	2167
163.245530	1.7592	2183
163.323891	1.5481	1921
163.420147	1.7914	2223
163.547517	1.4691	1823
163.643069	1.6238	2015
163.753457	1.5658	1943
163.832609	1.7334	2151
163.944127	1.8172	2255
164.023916	1.3595	1687
164.150044	1.5529	1927
164.229052	1.5787	1959
164.324566	1.5400	1911
164.419667	1.5593	1935
164.531638	1.5787	1959
164.643131	1.8172	2255
164.722080	1.3595	1687
164.817939	1.5529	1927
164.928810	1.6109	1999
165.024659	1.6367	2031
165.135162	3.2355	4015
165.247245	1.4433	1791
165.326505	1.7656	2191
165.421423	1.4981	1859
165.532749	1.4304	1775
165.628675	1.5464	1919
165.724350	1.6754	2079
165.820115	3.2355	4015
165.932011	1.5497	1923
166.043748	1.8301	2271
166.123874	1.4497	1799
166.251028	1.5787	1959
166.330397	1.4433	1791
166.442273	1.5529	1927
166.521973	1.5497	1923
166.617789	1.5271	1895
166.729706	3.2420	4023
166.824373	1.5851	1967
166.919737	1.7979	2231
167.046542	1.4175	1759
167.126464	1.4981	1859
167.222049	1.4691	1823
167.334113	1.5481	1921
167.429783	1.7044	2115
167.541628	1.6786	2083
167.620679	1.6496	2047
167.731736	1.6560	2055
167.827952	1.7028	2113
167.923832	1.6303	2023
168.019892	1.5755	1955
168.130942	1.5658	1943
168.226719	1.8366	2279
168.337537	1.3659	1695
168.448450	1.5658	1943
168.544211	1.5239	1891
168.624470	1.5851	1967
168.720039	1.5271	1895
168.847433	1.5207	1887
168.927020	1.5787	1959
169.022460	1.6367	2031
169.117685	3.2420	4023
169.245698	1.5239	1891
169.324250	1.8495	2295
169.419099	1.5964	1981
169.531852	1.3982	1735
169.626529	1.4755	1831
169.721853	1.4497	1799
169.849140	1.5593	1935
169.928966	1.6109	1999
170.023550	1.4965	1857
170.119350	1.5336	1903
170.247163	1.6560	2055
170.326920	1.8946	2351
170.423476	1.3595	1687
170.518520	1.6238	2015
170.646010	1.5078	1871
170.741591	1.6270	2019
170.821229	1.5787	1959
170.931966	1.6560	2055
171.027822	1.5851	1967
171.139404	1.5336	1903
171.218429	1.5996	1985
171.330335	1.9204	2383
171.441765	1.4981	1859
171.521297	1.4965	1857
171.632905	1.4562	1807
171.729113	1.4755	1831
171.824180	1.5529	1927
171.918924	1.6464	2043
172.047126	1.5916	1975
172.125152	1.1210	1391
172.222055	1.5722	1951
172.332688	1.8623	2311
172.428864	1.3885	1723
172.523826	1.4755	1831
172.619209	1.5013	1863
172.730054	1.5787	1959
172.826543	1.6303	2023
172.921822	1.6883	2095
173.034042	1.6367	2031
173.129123	1.2757	1583
173.224782	1.6270	2019
173.320364	1.9333	2399
173.432282	1.3530	1679
173.526694	1.4755	1831
173.622565	1.5529	1927
173.718873	1.5207	1887
173.829691	1.6045	1991
173.924851	1.5787	1959
174.019434	3.2420	4023
174.147313	1.4916	1851
174.227078	1.8059	2241
174.321194	1.3788	1711
174.432913	1.4046	1743
174.528264	1.5207	1887
174.623333	1.5593	1935
174.719194	1.6625	2063
174.831701	2.8036	3479
174.927685	1.4965	1857
175.039063	1.7399	2159
175.118701	1.5593	1935
175.230604	1.4691	1823
175.325830	1.5529	1927
175.421217	1.5593	1935
175.533521	1.6883	2095
175.645954	1.9010	2359
175.724640	1.5078	1871
175.820739	1.7592	2183
175.931662	1.6045	1991
176.027289	1.6270	2019
176.123134	1.6045	1991
176.218135	1.5787	1959
176.330167	1.6045	1991
176.425098	1.5013	1863
176.521092	3.2420	4023
176.631594	1.5078	1871
176.727286	1.7592	2183
176.823055	1.5013	1863
176.918297	1.4755	1831
177.030159	1.4755	1831
177.125377	1.6238	2015
177.220892	1.5529	1927
177.316811	1.7076	2119
177.444614	1.6238	2015
177.523165	1.4965	1857
177.618781	1.7076	2119
177.729743	1.9204	2383
177.825610	1.3659	1695
177.920517	1.5593	1935
178.032398	1.5996	1985
178.126981	1.6560	2055
178.239299	1.7334	2151
178.318143	3.2323	4011
178.445522	1.5497	1923
178.524495	1.8140	2251
178.621629	1.6496	2047
178.716735	1.5593	1935
178.828480	1.4304	1775
178.923268	1.3144	1631
179.019173	1.6754	2079
179.130853	3.2355	4015
179.226858	1.5529	1927
179.322600	1.8495	2295
179.417706	1.4304	1775
179.529751	1.5400	1911
179.640911	1.5271	1895
179.720392	1.5722	1951
179.832174	1.5497	1923
179.927290	1.4336	1779
180.022372	1.5207	1887
180.117017	1.8623	2311
180.244732	1.4175	1759
180.324608	1.5207	1887
180.420397	1.5013	1863
180.532252	1.5722	1951
180.629301	1.7076	2119
180.724881	1.6496	2047
180.836794	1.4820	1839
180.932093	1.6947	2103
181.027228	1.7818	2211
181.122754	1.5078	1871
181.235557	1.4820	1839
181.330882	1.5400	1911
181.426445	1.7076	2119
181.521821	1.4497	1799
181.616850	1.4497	1799
181.730075	1.6754	2079
181.825281	1.7205	2135
181.921141	1.4304	1775
182.017531	1.5013	1863
182.129485	1.5529	1927
182.224357	1.6012	1987
182.320592	3.2412	4022
182.432505	1.4755	1831
182.528679	1.8051	2240
182.623500	1.4207	1763
182.718692	1.4755	1831
182.830110	1.5336	1903
182.925082	1.5593	1935
183.019918	1.7592	2183
183.147581	1.6560	2055
183.226834	1.5078	1871
183.323272	1.7463	2167
183.418203	1.6012	1987
183.530269	1.4755	1831
183.625603	1.4981	1859
183.721208	1.5988	1984
183.816793	1.6883	2095
183.928696	1.5013	1863
184.024224	1.4304	1775
184.135812	1.6754	2079
184.230689	1.7721	2199
184.327175	1.4981	1859
184.422597	1.5497	1923
184.533854	1.5787	1959
184.629344	1.7818	2211
184.740963	1.6045	1991
184.819948	1.4562	1807
184.931573	1.7028	2113
185.026102	1.7785	2207
185.122451	1.4304	1775
185.218027	1.5851	1967
185.328819	1.4981	1859
185.423991	1.7028	2113
185.520068	1.8301	2271
185.631228	1.5658	1943
185.742452	1.5239	1891
185.820705	1.7527	2175
185.948114	1.8075	2243
186.027037	1.4562	1807
186.123356	1.4981	1859
186.218345	1.5271	1895
186.329463	1.5078	1871
186.424097	1.5336	1903
186.519517	1.6528	2051
186.631750	1.6238	2015
186.743277	1.5755	1955
186.821896	1.7850	2215
186.933456	1.8591	2307
187.044700	1.4465	1795
187.124131	1.4433	1791
187.219743	1.5593	1935
187.331387	1.5722	1951
187.426100	1.6238	2015
187.521079	1.6012	1987
187.616615	1.5207	1887
187.729272	1.6045	1991
187.823778	1.9526	2423
187.919466	1.3788	1711
188.030625	1.4562	1807
188.126090	1.5529	1927
188.221487	1.5722	1951
188.332438	1.6109	1999
188.427405	1.6496	2047
188.523164	1.5593	1935
188.635016	1.6432	2039
188.746754	1.9913	2471
188.826406	1.4046	1743
188.939365	1.5078	1871
189.018431	1.5988	1984
189.130453	1.4562	1807
189.225752	1.6689	2071
189.321054	1.5851	1967
189.433273	1.0887	1351
189.545055	1.6303	2023
189.625000	1.9204	2383
189.721623	1.4207	1763
189.817459	1.5207	1887
189.944584	1.4562	1807
190.024354	1.5271	1895
190.134283	1.6367	2031
190.230877	1.4175	1759
190.325540	1.4175	1759
190.421691	1.6818	2087
190.516451	1.7399	2159
190.628265	1.4304	1775
190.723965	1.4562	1807
190.819543	1.5787	1959
190.947800	1.6109	1999
191.043468	1.7785	2207
191.155359	1.5529	1927
191.234132	1.4626	1815
191.329522	1.7463	2167
191.424006	1.6496	2047
191.518838	1.4304	1775
191.646745	1.5593	1935
191.725752	1.4957	1856
191.820700	1.5722	1951
191.932617	1.5787	1959
192.043759	1.1596	1439
192.123945	1.5593	1935
192.219460	2.0171	2503
192.330610	1.4723	1827
192.426079	1.4820	1839
192.521558	1.5336	1903
192.616927	1.5529	1927
192.728811	1.6303	2023
192.825020	1.8849	2339
192.921395	1.5948	1979
193.031972	1.8817	2335
193.127442	1.4755	1831
193.223482	1.4465	1795
193.335625	1.4820	1839
193.431224	1.6367	2031
193.543419	1.5593	1935
193.624048	1.4981	1859
193.736468	1.6818	2087
193.831700	1.9623	2435
193.943571	1.3933	1729
194.022990	1.5271	1895
194.120206	1.4957	1856
194.245281	1.7592	2183
194.324696	1.3015	1615
194.420630	1.3949	1731
194.516307	1.6560	2055
194.644833	1.5497	1923
194.723771	1.4046	1743
194.819256	1.5271	1895
194.931523	1.5497	1923
195.027167	1.5593	1935
195.121855	3.2355	4015
195.246908	1.6496	2047
195.342255	1.9091	2369
195.422520	1.3853	1719
195.518081	1.4981	1859
195.629815	1.6496	2047
195.725002	1.7141	2127
195.821266	1.4965	1857
195.948043	3.2291	4007
196.028438	1.5013	1863
196.155075	2.0364	2527
196.235181	1.6432	2039
196.361282	1.5464	1919
196.425238	1.3208	1639
196.521005	1.8430	2287
196.616693	1.7044	2115
196.744752	1.1725	1455
196.823931	1.2950	1607
196.936114	1.5722	1951
197.031792	1.6818	2087
197.143164	1.2499	1551
197.238461	1.4240	1767
197.317656	1.4626	1815
197.430277	1.6012	1987
197.524183	1.4046	1743
197.620068	1.5658	1943
197.730560	1.7141	2127
197.825899	1.9526	2423
197.921612	1.2902	1601
198.016227	1.6560	2055
198.127696	1.8495	2295
198.222672	1.6238	2015
198.319103	1.6883	2095
198.430791	1.6109	1999
198.526319	1.7592	2183
198.622523	1.7914	2223
198.718272	1.3273	1647
198.846724	1.6689	2071
198.926643	1.4957	1856
199.021967	1.3530	1679
199.117473	3.2388	4019
199.229651	1.6560	2055
199.325678	1.8623	2311
199.420873	1.4562	1807
199.516015	1.4691	1823
199.627671	1.2628	1567
199.739054	1.7914	2223
199.817927	1.6367	2031
199.929939	1.3659	1695
200.025163	1.9204	2383
200.121827	1.8366	2279
200.233732	1.4723	1827
200.329615	1.4965	1857
200.426470	1.6012	1987
200.521046	1.4820	1839
200.616709	1.4497	1799
200.729296	1.6754	2079
200.825870	1.6560	2055
200.920880	1.5013	1863
201.016301	1.4497	1799
201.127622	1.6496	2047
201.239805	1.3273	1647
201.335034	1.4691	1823
201.431896	1.7270	2143
201.542645	1.6109	1999
201.638518	1.4723	1827
201.734306	1.5529	1927
201.845326	1.4755	1831
201.924882	1.0565	1311
202.036558	1.6432	2039
202.147526	1.9107	2371
202.226839	1.4240	1767
202.322568	1.5529	1927
202.417608	1.6947	2103
202.545283	1.3079	1623
202.640361	1.5142	1879
202.720083	1.7656	2191
202.830814	1.5529	1927
202.925838	1.5239	1891
203.022531	1.5013	1863
203.117102	1.6560	2055
203.245261	1.4884	1847
203.324256	1.5013	1863
203.420319	1.7721	2199
203.531624	1.5593	1935
203.627257	1.5078	1871
203.722756	1.5142	1879
203.818750	1.5593	1935
203.946063	1.5851	1967
204.024996	1.6045	1991
204.120960	1.6238	2015
204.231717	3.2234	4000
204.327496	1.5916	1975
204.422763	1.8301	2271
204.518779	1.4691	1823
204.630775	1.5497	1923
204.726304	1.5239	1891
204.821920	1.5336	1903
204.916885	1.5996	1985
205.044445	1.5996	1985
205.123055	1.6045	1991
205.219741	2.9777	3695
205.331345	1.6045	1991
205.426295	1.8172	2255
205.521719	1.4691	1823
205.617186	1.5207	1887
205.745322	1.5207	1887
205.824919	1.5529	1927
205.920660	1.6109	1999
206.031757	1.7302	2147
206.128289	3.2323	4011
206.224424	1.5529	1927
206.319949	1.8043	2239
206.433435	1.5593	1935
206.527848	1.5593	1935
206.623949	1.5464	1919
206.735940	1.5400	1911
206.847702	1.6045	1991
206.926981	1.7334	2151
207.038400	3.2355	4015
207.118002	1.5722	1951
207.230232	1.8495	2295
207.325656	1.5303	1899
207.421404	1.4755	1831
207.516934	1.5078	1871
207.628410	1.6270	2019
207.725038	1.5336	1903
207.819232	1.5142	1879
207.931414	1.6045	1991
208.027293	1.8785	2331
208.123695	1.4562	1807
208.219053	1.6109	1999
208.331207	1.4981	1859
208.426170	1.4957	1856
208.521726	1.7028	2113
208.616633	1.6109	1999
208.729624	1.9139	2375
208.824215	1.4368	1783
208.919615	1.5787	1959
209.047158	1.5271	1895
209.127803	1.5207	1887
209.222318	1.6625	2063
209.334701	1.3208	1639
209.430191	1.7141	2127
209.541701	1.6496	2047
209.636540	1.6012	1987
209.716224	1.1467	1423
209.827838	1.5593	1935
209.922562	1.6109	1999
210.017922	2.8632	3553
210.129631	1.5787	1959
210.240201	1.8333	2275
210.319883	1.4884	1847
210.430554	1.4723	1827
210.526061	1.4723	1827
210.621235	1.4981	1859
210.718317	1.4433	1791
210.829119	1.0049	1247
210.923265	1.6045	1991
211.018676	1.8333	2275
211.129046	1.5271	1895
211.241306	1.7205	2135
211.320511	1.5078	1871
211.432655	1.7399	2159
211.527400	1.5497	1923
211.623673	1.3788	1711
211.718805	1.7020	2112
211.831046	1.9719	2447
211.925529	1.6367	2031
212.021087	1.6303	2023
212.116870	1.4240	1767
212.228131	1.4562	1807
212.324231	3.1130	3863
212.420180	1.5497	1923
212.531103	1.9655	2439
212.642170	1.5755	1955
212.720579	1.7850	2215
212.833084	1.3788	1711
212.927985	1.5078	1871
213.023350	1.6303	2023
213.118829	1.5013	1863
213.231169	1.6109	1999
213.326909	1.6270	2019
213.421906	1.8559	2303
213.547681	1.4465	1795
213.627732	1.6560	2055
213.722572	1.4981	1859
213.835185	1.6109	1999
213.929920	1.7205	2135
214.025295	2.4248	3009
214.120676	1.4304	1775
214.217293	1.7850	2215
214.344446	1.6367	2031
214.424134	1.4820	1839
214.520126	1.4981	1859
214.631636	1.7527	2175
214.727181	1.6689	2071
214.821660	1.6464	2043
214.916590	1.5988	1984
215.028129	1.6496	2047
215.122446	1.9204	2383
215.217964	1.7205	2135
215.329742	1.4465	1795
215.425258	1.4691	1823
215.520717	1.5142	1879
215.615880	1.5464	1919
215.727571	2.1525	2671
215.823685	1.5400	1911
215.934820	1.9913	2471
216.046670	1.6109	1999
216.126081	1.5755	1955
216.237947	1.4433	1791
216.317192	1.5464	1919
216.429052	1.6496	2047
216.523836	3.2355	4015
216.620128	1.5988	1984
216.731397	2.0300	2519
216.826457	1.5497	1923
216.922618	1.5996	1985
217.017433	1.6496	2047
217.129483	1.6270	2019
217.225053	1.2950	1607
217.320489	1.5078	1871
217.415853	1.8623	2311
217.528547	1.6560	2055
217.624633	1.5271	1895
217.720442	1.4820	1839
217.815631	1.5207	1887
217.943644	3.2355	4015
218.022352	1.5755	1955
218.134207	1.8559	2303
218.245088	1.3982	1735
218.324934	1.5013	1863
218.420698	1.9397	2407
218.531594	0.8631	1071
218.626848	1.5013	1863
218.722728	1.3208	1639
218.819009	1.5400	1911
218.930410	1.8946	2351
219.025640	1.6432	2039
219.121627	1.5078	1871
219.216379	1.3208	1639
219.328993	1.3788	1711
219.423991	1.6625	2063
219.518290	1.4046	1743
219.630227	1.4981	1859
219.725589	1.3466	1671
219.837974	1.2918	1603
219.916882	1.7656	2191
220.044807	1.9204	2383
220.124632	1.5593	1935
220.220403	1.7560	2179
220.316122	1.6109	1999
220.428404	3.0179	3745
220.523408	1.5336	1903
220.635198	1.8366	2279
220.729886	1.5336	1903
220.825721	1.3079	1623
220.920996	1.6367	2031
221.016190	1.7141	2127
221.128338	3.2420	4023
221.223155	1.3659	1695
221.335035	1.6528	2051
221.430026	1.2692	1575
221.525383	1.6303	2023
221.622101	1.9655	2439
221.717523	1.3788	1711
221.845857	1.5432	1915
221.924744	1.2910	1602
222.019051	1.8366	2279
222.130997	1.6786	2083
222.226519	1.3466	1671
222.322433	1.0565	1311
222.434332	1.2241	1519
222.529624	1.5722	1951
222.642309	1.3530	1679
222.721314	1.5996	1985
222.817103	1.9397	2407
222.927913	1.5787	1959
223.023420	1.7044	2115
223.118062	1.5529	1927
223.229925	1.8301	2271
223.324705	1.4433	1791
223.420581	1.5013	1863
223.516279	1.6303	2023
223.643923	1.6496	2047
223.739065	1.5497	1923
223.835206	1.5271	1895
223.928695	1.6496	2047
224.024653	1.7141	2127
224.119371	1.4046	1743
224.231467	1.6303	2023
224.326581	1.5851	1967
224.422164	1.5432	1915
224.517960	1.5207	1887
224.630246	1.7270	2143
224.725107	1.6174	2007
224.820883	1.8688	2319
224.915657	1.7141	2127
225.043564	1.5464	1919
225.138401	1.4240	1767
225.217591	1.3788	1711
225.330190	1.3982	1735
225.424657	1.1145	1383
225.520339	0.9308	1155
225.632409	1.8366	2279
225.727987	1.4562	1807
225.823566	1.8301	2271
225.919392	1.6754	2079
226.029978	2.2878	2839
226.125109	1.6109	1999
226.220715	1.8237	2263
226.315962	1.7592	2183
226.428054	1.2370	1535
226.523324	1.5207	1887
226.635281	3.2242	4001
226.730586	1.6045	1991
226.842699	1.8430	2287
226.921581	1.3788	1711
227.033666	1.4562	1807
227.129090	1.4626	1815
227.224735	3.1582	3919
227.320020	1.6045	1991
227.430873	1.8301	2271
227.526720	1.5239	1891
227.622169	1.5529	1927
227.718023	1.4981	1859
227.846356	1.2692	1575
227.925603	1.6560	2055
228.021230	1.7914	2223
228.132971	1.3982	1735
228.228683	1.6174	2007
228.324647	1.4240	1767
228.420899	1.2918	1603
228.516392	1.5271	1895
228.644501	1.7076	2119
228.723404	1.4304	1775
228.836097	1.7076	2119
228.915898	1.4175	1759
229.028054	1.4981	1859
229.122157	1.7044	2115
229.217832	1.5400	1911
229.329317	1.5013	1863
229.425202	1.6012	1987
229.520579	1.4691	1823
229.616874	1.4723	1827
229.729220	1.6786	2083
229.824051	1.5996	1985
229.919644	1.4562	1807
230.015364	1.5529	1927
230.128248	1.4562	1807
230.223831	2.9261	3631
230.319108	1.6238	2015
230.430152	1.8881	2343
230.526048	1.5529	1927
230.620625	1.6012	1987
230.731141	1.6947	2103
230.842715	1.2434	1543
230.937901	1.4691	1823
231.017568	1.7399	2159
231.129601	1.4820	1839
231.241600	1.4691	1823
231.321069	1.6786	2083
231.416055	1.6012	1987
231.528398	1.2628	1567
231.623544	1.5142	1879
231.718853	1.7656	2191
231.846022	1.5013	1863
231.925263	1.6496	2047
232.021159	1.3982	1735
232.116700	1.7592	2183
232.244175	1.6560	2055
232.323760	1.4981	1859
232.418875	1.5593	1935
232.531089	1.9913	2471
232.626163	1.3982	1735
232.721531	1.5690	1947
232.815792	1.3337	1655
232.928167	1.4433	1791
233.023708	1.7560	2179
233.119488	1.4884	1847
233.215318	3.1259	3879
233.343366	1.5013	1863
233.422520	1.5916	1975
233.517243	1.2757	1583
233.628646	1.3434	1667
233.723731	1.4433	1791
233.820428	1.4723	1827
233.915598	1.6238	2015
234.026998	1.6045	1991
234.137360	1.6012	1987
234.217821	1.9204	2383
234.329308	1.9784	2455
234.424267	1.4465	1795
234.519938	1.5497	1923
234.615466	1.5271	1895
234.742915	1.5787	1959
234.822443	1.8366	2279
234.918146	3.2420	4023
235.046087	1.6367	2031
235.125496	1.8495	2295
235.238017	1.3949	1731
235.317252	1.4175	1759
235.446110	1.4304	1775
235.526140	1.3337	1655
235.622445	1.5988	1984
235.716236	1.4755	1831
235.828216	1.5207	1887
235.939836	1.7044	2115
236.019436	1.9945	2475
236.130717	1.4433	1791
236.226529	1.5078	1871
236.321363	1.5078	1871
236.415336	1.5529	1927
236.527712	1.7560	2179
236.622543	3.2097	3983
236.718184	1.5529	1927
236.829273	1.7818	2211
236.942231	1.4562	1807
237.021611	1.6625	2063
237.132813	1.4111	1751
237.227478	1.6689	2071
237.339221	1.6625	2063
237.419127	3.2388	4019
237.547322	1.5271	1895
237.627520	1.8430	2287
237.739391	1.3982	1735
237.819278	1.5013	1863
237.931663	1.4304	1775
238.026095	1.7399	2159
238.138284	1.0855	1347
238.217957	1.4755	1831
238.345663	1.7850	2215
238.425098	1.5497	1923
238.520804	1.4465	1795
238.617185	1.4691	1823
238.728485	1.6625	2063
238.823929	1.6045	1991
238.919703	1.6754	2079
239.031413	1.6625	2063
239.126661	1.7914	2223
239.238449	1.4304	1775
239.318137	1.5481	1921
239.429465	1.5529	1927
239.525055	1.6625	2063
239.636767	3.2420	4023
239.716596	1.6496	2047
239.827056	1.7850	2215
239.923461	1.4755	1831
240.018936	1.4433	1791
240.131003	1.4240	1767
240.226568	1.5336	1903
240.322612	1.3466	1671
240.418354	1.2902	1601
240.530415	1.5658	1943
240.625322	1.8623	2311
240.721194	1.3659	1695
240.817259	1.4916	1851
240.945660	1.4981	1859
241.025445	1.7656	2191
241.136263	1.2757	1583
241.215439	1.6818	2087
241.326166	1.9107	2371
241.421204	1.6883	2095
241.517272	1.5336	1903
241.628123	1.5271	1895
241.722757	1.6238	2015
241.818148	1.5336	1903
241.929942	1.4755	1831
242.024489	1.6109	1999
242.120487	1.6625	2063
242.215480	2.0493	2543
242.327129	1.5432	1915
242.423513	1.5013	1863
242.518168	1.4957	1856
242.630861	1.7141	2127
242.726081	1.5722	1951
242.820957	1.3724	1703
242.916848	1.7656	2191
243.043048	1.6689	2071
243.122587	1.4046	1743
243.218604	1.4240	1767
243.329455	1.5239	1891
243.425138	1.5400	1911
243.521109	1.6045	1991
243.648989	1.7560	2179
243.729405	1.6367	2031
243.825269	1.5078	1871
243.920332	1.6432	2039
244.015992	1.8881	2343
244.126307	1.3853	1719
244.221736	1.5078	1871
244.317103	1.4755	1831
244.429236	1.5481	1921
244.524507	1.6625	2063
244.619837	1.5497	1923
244.714730	1.5755	1955
244.843491	1.6625	2063
244.921509	1.9945	2475
245.032578	1.4046	1743
245.144995	1.5142	1879
245.240316	1.4465	1795
245.320451	1.6754	2079
245.446911	1.5755	1955
245.525808	1.7399	2159
245.637506	3.2323	4011
245.716677	1.5207	1887
245.828860	1.9139	2375
245.923644	1.4820	1839
246.020319	1.4723	1827
246.114976	1.4981	1859
246.226238	1.4981	1859
246.337592	1.6012	1987
246.417993	1.7527	2175
246.530972	1.2918	1603
246.625615	1.7012	2111
246.722561	1.8946	2351
246.816909	1.7044	2115
246.928916	1.4240	1767
247.023892	1.4957	1856
247.119409	1.5400	1911
247.214842	1.5658	1943
247.343217	1.7463	2167
247.422598	1.6270	2019
247.517556	1.5336	1903
247.630258	1.7656	2191
247.725847	1.5497	1923
247.837446	1.4562	1807
247.915705	1.5013	1863
248.026884	1.4981	1859
248.138497	1.8108	2247
248.217138	1.5013	1863
248.328978	1.5336	1903
248.424456	1.7914	2223
248.520148	1.5851	1967
248.631810	1.3595	1687
248.727952	1.4240	1767
248.821393	1.5271	1895
248.916699	1.7141	2127
249.029256	1.5529	1927
249.124690	1.5271	1895
249.220284	1.7399	2159
249.315744	1.5658	1943
249.428054	1.4755	1831
249.522998	1.4562	1807
249.618583	1.6174	2007
249.745768	1.4562	1807
249.824976	1.4175	1759
249.920696	1.6560	2055
250.015816	1.7527	2175
250.127628	1.3724	1703
250.224292	1.5207	1887
250.319772	1.7076	2119
250.416172	1.4433	1791
250.543516	1.4755	1831
250.638089	1.8059	2241
250.734077	1.6238	2015
250.828996	1.4497	1799
250.923508	1.5013	1863
251.019573	1.4723	1827
251.115554	2.9583	3671
251.243721	1.5722	1951
251.323190	1.8849	2339
251.418250	1.4046	1743
251.546655	1.5432	1915
251.641081	1.6818	2087
251.720047	1.5336	1903
251.816101	1.4433	1791
251.927215	1.6754	2079
252.022071	1.7527	2175
252.117775	1.4046	1743
252.245901	1.5593	1935
252.340553	1.5078	1871
252.420619	1.5787	1959
252.516273	1.5722	1951
252.628207	1.6883	2095
252.722830	1.5593	1935
252.818405	1.8366	2279
252.930629	1.4965	1857
253.026321	1.5529	1927
253.122064	1.6560	2055
253.233501	1.5851	1967
253.328683	1.7020	2112
253.440953	3.2404	4021
253.520457	1.5529	1927
253.616252	1.8301	2271
253.727865	1.4820	1839
253.822628	1.4820	1839
253.934266	1.4433	1791
254.045455	1.5336	1903
254.125190	1.6883	2095
254.220744	1.5142	1879
254.316853	1.5497	1923
254.428330	1.7560	2179
254.521692	1.9139	2375
254.616924	1.4562	1807
254.728387	1.5078	1871
254.823588	1.5722	1951
254.918626	1.5787	1959
255.046149	1.5142	1879
255.125314	1.4497	1799
255.236087	1.6045	1991
255.316207	1.9655	2439
255.426720	1.3418	1665
255.522816	1.4562	1807
255.618556	1.5593	1935
255.728991	1.6754	2079
255.824578	3.2420	4023
255.919183	1.4965	1857
256.014979	1.9083	2368
256.126411	1.3925	1728
256.221281	1.5658	1943
256.317523	1.4957	1856
256.428948	1.9333	2399
256.524558	1.5755	1955
256.621212	1.5972	1982
256.717685	1.7463	2167
256.828716	1.6625	2063
256.923181	1.3144	1631
257.018817	1.7527	2175
257.114364	1.6560	2055
257.242548	1.5207	1887
257.322375	1.4965	1857
257.434237	3.2355	4015
257.529636	1.5916	1975
257.624722	1.8688	2319
257.720301	1.2144	1507
257.831862	1.3982	1735
257.925225	1.5013	1863
258.036739	1.4465	1795
258.115739	1.5432	1915
258.243732	1.8430	2287
258.322602	1.4207	1763
258.418325	1.5755	1955
258.545995	1.7979	2231
258.625226	1.6979	2107
258.736603	1.3434	1667
258.817068	1.5271	1895
258.928604	1.4562	1807
259.023469	1.6238	2015
259.118602	1.7495	2171
259.229505	1.5593	1935
259.323986	1.8333	2275
259.419333	1.5207	1887
259.514817	1.1886	1475
259.643328	1.5497	1923
259.722550	1.7270	2143
259.818526	1.5593	1935
259.929603	3.2323	4011
260.026270	1.7721	2199
260.121496	2.1154	2625
260.217083	1.1596	1439
260.345667	1.1983	1487
260.425186	1.3144	1631
260.521201	1.5271	1895
260.616610	1.6754	2079
260.727875	3.2404	4021
260.823809	1.5336	1903
260.920010	1.8785	2331
261.016087	1.4820	1839
261.127451	1.4965	1857
261.222429	1.5464	1919
261.333957	1.5658	1943
261.427837	1.7399	2159
261.523520	2.0493	2543
261.617985	1.6109	1999
261.728412	1.8108	2247
261.824405	1.5787	1959
261.918935	1.4368	1783
262.030293	1.4755	1831
262.125456	1.6109	1999
262.220979	1.5593	1935
262.316223	3.2355	4015
262.428068	1.7914	2223
262.539616	1.7818	2211
262.619414	1.5593	1935
262.714632	1.5948	1979
262.826114	1.5481	1921
262.921352	1.5464	1919
263.017108	3.2355	4015
263.128762	1.5013	1863
263.224595	1.7785	2207
263.319514	1.4562	1807
263.415688	1.5271	1895
263.527788	1.4175	1759
263.639019	1.4562	1807
263.719169	3.2323	4011
263.815095	1.5722	1951
263.942541	1.9623	2435
264.022936	1.3788	1711
264.118320	1.4562	1807
264.229538	1.5787	1959
264.325582	1.5481	1921
264.420675	1.5722	1951
264.515270	1.7270	2143
264.626909	1.8688	2319
264.721065	1.4240	1767
264.832966	1.4965	1857
264.928171	1.6045	1991
265.039802	1.5336	1903
265.118949	1.4965	1857
265.230546	1.6560	2055
265.326653	1.8881	2343
265.421060	1.4723	1827
265.516649	1.5271	1895
265.628398	1.5529	1927
265.739692	1.4820	1839
265.819445	1.6303	2023
265.915127	1.5948	1979
266.027636	1.6109	1999
266.122562	1.1532	1431
266.235126	1.5988	1984
266.314958	1.9204	2383
266.442515	1.4240	1767
266.521997	1.5400	1911
266.617882	1.5013	1863
266.729352	1.6109	1999
266.825176	1.5996	1985
266.920255	1.7012	2111
267.016155	1.6303	2023
267.128770	1.4755	1831
267.224450	2.5554	3171
267.319921	1.5593	1935
267.415167	1.9107	2371
267.544436	1.3982	1735
267.623310	1.5336	1903
267.718870	1.4562	1807
267.814000	1.5078	1871
267.925721	1.5529	1927
268.021217	1.5336	1903
268.132701	1.7914	2223
268.228294	1.5996	1985
268.339517	1.3273	1647
268.418296	1.7141	2127
268.514098	2.0171	2503
268.643106	1.4433	1791
268.722844	1.5271	1895
268.819523	1.5207	1887
268.915223	1.4965	1857
269.026955	1.5593	1935
269.122349	1.6045	1991
269.217091	1.7302	2147
269.329205	1.6238	2015
269.441660	1.4691	1823
269.521188	1.6528	2051
269.617158	1.9881	2467
269.728851	1.3788	1711
269.823789	1.4755	1831
269.920420	1.5529	1927
270.016094	1.5593	1935
270.127886	1.3015	1615
270.223529	1.5787	1959
270.335022	1.5988	1984
270.414645	1.3434	1667
270.527149	1.5497	1923
270.621456	2.0122	2497
270.717145	1.3692	1699
270.828262	1.3530	1679
270.939522	1.4046	1743
271.034475	1.6045	1991
271.114636	1.4433	1791
271.241579	1.6174	2007
271.321255	1.6432	2039
271.417086	2.0364	2527
271.544312	1.7721	2199
271.638882	1.5787	1959
271.719191	1.7076	2119
271.814843	1.9719	2447
271.926301	1.3530	1679
272.038236	1.4626	1815
272.117406	1.4304	1775
272.229395	1.4981	1859
272.340918	1.5400	1911
272.420148	1.5787	1959
272.516011	1.7463	2167
272.628082	1.5722	1951
272.723806	1.4981	1859
272.818893	1.6625	2063
272.930285	1.9397	2407
273.042537	1.3530	1679
273.121999	1.5078	1871
273.217766	1.4755	1831
273.329043	1.5497	1923
273.424782	1.5464	1919
273.536747	1.6818	2087
273.616156	1.6012	1987
273.728882	3.2388	4019
273.824180	1.5851	1967
273.920292	1.8172	2255
274.015910	1.2918	1603
274.127829	1.5013	1863
274.239301	1.5336	1903
274.318623	1.5787	1959
274.414024	1.5207	1887
274.525987	1.6109	1999
274.621985	3.2420	4023
274.733895	1.7141	2127
274.828912	2.1138	2623
274.924380	1.4981	1859
275.020633	1.5271	1895
275.115962	1.4626	1815
275.227749	1.4562	1807
275.323306	1.5851	1967
275.418824	1.6883	2095
275.514404	3.2420	4023
275.626148	1.4433	1791
275.721920	1.8817	2335
275.817693	1.5013	1863
275.945777	1.4497	1799
276.025553	1.5013	1863
276.120886	1.5400	1911
276.216908	1.5013	1863
276.328652	1.8108	2247
276.424316	1.5787	1959
276.519974	1.5432	1915
276.615219	1.7656	2191
276.726420	1.6754	2079
276.821726	1.4755	1831
276.917958	1.4965	1857
277.029033	1.5078	1871
277.124416	1.5916	1975
277.219871	1.7721	2199
277.315680	1.5658	1943
277.445019	1.4965	1857
277.524192	1.7334	2151
277.619704	1.8301	2271
277.715337	1.4497	1799
277.826626	1.4949	1855
277.938759	1.4626	1815
278.018182	1.5078	1871
278.129732	1.6464	2043
278.225066	1.5142	1879
278.319634	1.5497	1923
278.431299	1.6045	1991
278.525653	1.8688	2319
278.622282	1.4046	1743
278.717507	1.5207	1887
278.829633	1.5013	1863
278.925073	1.6045	1991
279.020311	1.4433	1791
279.116049	3.2355	4015
279.245623	1.6625	2063
279.324621	1.9526	2423
279.436208	1.4755	1831
279.515974	1.5336	1903
279.627167	1.5529	1927
279.737715	1.7334	2151
279.817069	1.5013	1863
279.927890	1.4755	1831
280.023047	1.6560	2055
280.119024	1.8172	2255
280.231104	1.4046	1743
280.326314	1.5271	1895
280.421390	1.5529	1927
280.515903	1.4820	1839
280.627614	1.5593	1935
280.722412	1.6303	2023
280.817560	1.8237	2263
280.944798	1.4175	1759
281.024713	1.5013	1863
281.119533	1.4755	1831
281.214531	1.6979	2107
281.326685	1.5013	1863
281.421045	1.5529	1927
281.517343	1.5851	1967
281.628865	1.7624	2187
281.724083	1.4820	1839
281.819972	1.5593	1935
281.915854	1.4723	1827
282.043621	1.4755	1831
282.122377	1.7914	2223
282.218569	1.5481	1921
282.314016	1.5336	1903
282.440535	1.7044	2115
282.519739	1.7270	2143
282.616362	1.5755	1955
282.726844	1.5207	1887
282.822227	1.5464	1919
282.917735	1.6012	1987
283.029415	1.5464	1919
283.140502	1.4820	1839
283.219903	1.2563	1559
283.315569	1.6109	1999
283.443178	1.7850	2215
283.522826	1.5078	1871
283.618241	1.5529	1927
283.713669	1.5400	1911
283.825345	1.5078	1871
283.920620	1.5851	1967
284.032487	1.6012	1987
284.143539	2.6875	3335
284.238811	1.5819	1963
284.319184	1.7592	2183
284.415143	1.4820	1839
284.526920	1.5658	1943
284.623173	1.5078	1871
284.719173	1.6947	2103
284.814250	1.6012	1987
284.925750	1.4981	1859
285.021042	3.2355	4015
285.116839	1.5851	1967
285.228374	1.7334	2151
285.324636	1.5013	1863
285.419978	1.5593	1935
285.514995	1.4965	1857
285.626665	1.5593	1935
285.721797	1.5207	1887
285.834712	1.5464	1919
285.913597	3.1840	3951
286.040999	1.5593	1935
286.120012	1.7560	2179
286.215787	1.4957	1856
286.343521	1.4965	1857
286.422715	1.5271	1895
286.518669	1.5593	1935
286.613844	1.5497	1923
286.726689	1.5497	1923
286.837583	2.5135	3119
286.933753	1.5722	1951
287.028281	1.7399	2159
287.123767	1.4562	1807
287.219226	1.4981	1859
287.315359	1.4884	1847
287.427502	1.4691	1823
287.539585	1.7399	2159
287.619587	1.5593	1935
287.714768	1.4981	1859
287.843461	1.6109	1999
287.922381	1.8075	2243
288.017194	1.5078	1871
288.129502	1.3530	1679
288.224120	1.2241	1519
288.319074	1.3530	1679
288.414629	1.5593	1935
288.542797	3.2355	4015
288.637529	1.7850	2215
288.717624	1.9719	2447
288.813479	1.6528	2051
288.926109	1.7656	2191
289.020983	1.5464	1919
289.116787	1.7399	2159
289.228175	1.7527	2175
289.323408	1.6238	2015
289.418653	1.2370	1535
289.514708	1.6238	2015
289.626643	1.1371	1411
289.721946	1.4175	1759
289.817333	0.9662	1199
289.929084	3.2355	4015
290.039994	1.0758	1335
290.119665	1.7399	2159
290.232008	1.3949	1731
290.326889	1.4562	1807
290.422439	1.7028	2113
290.517602	1.8430	2287
290.629341	1.5464	1919
290.724811	1.7914	2223
290.820980	1.5996	1985
290.932882	1.5013	1863
291.027799	1.7141	2127
291.139821	1.2950	1607
291.218883	1.4240	1767
291.315019	1.7979	2231
291.442724	1.6303	2023
291.522015	1.5078	1871
291.617998	1.5207	1887
291.744571	1.4820	1839
291.823678	1.4304	1775
291.919711	1.6109	1999
292.015533	1.8301	2271
292.127355	1.3401	1663
292.222278	1.4562	1807
292.332950	1.4965	1857
292.428756	1.5481	1921
292.524544	1.6109	1999
292.619879	1.6754	2079
292.715663	1.5497	1923
292.844102	1.7076	2119
292.939295	1.6625	2063
293.034731	1.5755	1955
293.114188	1.7205	2135
293.243222	1.8495	2295
293.321910	1.4691	1823
293.416720	1.4562	1807
293.528849	1.7592	2183
293.623700	1.3466	1671
293.733971	1.3530	1679
293.813518	1.5271	1895
293.925425	1.5916	1975
294.020172	1.5593	1935
294.115475	1.7205	2135
294.243255	1.4820	1839
294.322649	1.4562	1807
294.418711	1.7785	2207
294.513831	1.7399	2159
294.626443	1.2950	1607
294.721958	1.5271	1895
294.817156	1.4497	1799
294.928137	1.7850	2215
295.023453	1.6109	1999
295.118988	3.1888	3957
295.214865	1.5271	1895
295.326312	1.8333	2275
295.421887	1.6109	1999
295.517016	1.3530	1679
295.628891	1.5593	1935
295.725076	1.6012	1987
295.820764	1.6625	2063
295.916076	1.7076	2119
296.028482	1.7028	2113
296.123274	1.6625	2063
296.218142	1.8591	2307
296.313463	1.8366	2279
296.441775	1.5271	1895
296.520830	1.8237	2263
296.631213	1.5851	1967
296.727252	1.8623	2311
296.822708	1.3079	1623
296.918732	1.4304	1775
297.013754	1.4884	1847
297.141503	1.4820	1839
297.221265	1.5271	1895
297.332891	1.6045	1991
297.427880	1.6206	2011
297.523505	1.7141	2127
297.619499	1.8688	2319
297.714994	1.5996	1985
297.827111	1.5239	1891
297.921652	1.7818	2211
298.017650	1.8688	2319
298.127541	1.2434	1543
298.224213	1.4497	1799
298.318216	1.4755	1831
298.430153	1.5851	1967
298.525419	1.4014	1739
298.637384	1.5787	1959
298.717383	1.5593	1935
298.843446	1.7141	2127
298.922877	1.6238	2015
299.018546	1.6754	2079
299.113370	1.6045	1991
299.225423	1.9204	2383
299.319250	1.3530	1679
299.414911	1.3982	1735
299.526021	1.4465	1795
299.622486	1.5593	1935
299.718394	1.5593	1935
299.813507	1.6238	2015
299.924716	1.6109	1999
