Tiempo_s          Valor
0.028471000000834 1.5641758241758
  2.7573049999997 1.6802197802198
  2.8101740000024 2.2757509157509
  2.8552800000012 1.4505494505495
  2.8963030000031 1.3353113553114
  2.9340570000038 1.2047619047619
    2.973311999999 1.3570695970696
  3.0107360000014 1.3264468864469
  3.0414659999982 1.3989743589744
  3.0746740000024 1.5246886446886
  3.1037119999975 1.4634432234432
  3.1253530000001 1.4964835164835
  3.1465900000036 1.5794871794872
  3.1665890000015 1.9098901098901
  3.1886429999992 1.551282051282
  3.2192190000042 1.3772161172161
  3.2398170000017 1.3111355311355
  3.2605769999996 1.4513553113553
  3.2824940000027 1.4005860805861
  3.3083000000045 1.4497435897436
  3.3393590000048 1.476336996337
  3.3687819999978 1.5496703296703
  3.3965710000023 3.1952380952381
  3.4315439999998 1.5448351648352
  3.4597770000026 1.7317948717949
  3.4816960000023 2.298315018315
  3.5043810000047 1.290989010989
  3.5234200000018 1.3183882783883
  3.5443580000028 1.3627106227106
  3.5683669999987 1.5158241758242
  3.5890329999998 1.5649816849817
  3.6107430000007 1.6052747252747
  3.6314699999988 1.5254945054945
    3.652498999998 1.5891575091575
  3.6738200000003 1.5649816849817
  3.6943519999981 1.9888644688645
  3.7153269999996 1.4739194139194
    3.737388000004 1.2643956043956
  3.7601909999996 1.3868864468864
  3.7846340000033 1.360293040293
  3.8111840000004 1.3764102564103
  3.8394849999994 1.4408791208791
  3.8630469999984 1.3667399267399
  3.8914769999981 3.1855677655678
  3.9189809999987 1.4642490842491
  3.9536120000035 1.6689377289377
  3.9905689999983 2.2991208791209
  4.0276190000027 1.3941391941392
  4.0723079999983 1.3796336996337
  4.1089970000014 1.3917216117216
  4.1481000000015 1.4102564102564
  4.1890680000037 1.4803663003663
  4.2293259999976 1.5770695970696
  4.2658819999993 1.476336996337
  4.3071319999993 1.7696703296703
  4.3480799999982 1.7728937728938
  4.3868680000007 2.0702564102564
  4.4266930000037 1.5899633699634
  4.4649699999988 1.3216117216117
  4.5055689999983 1.3498168498168
  4.5437770000026 1.3635164835165
  4.5813149999976 1.4086446886447
  4.6230590000004 1.5246886446886
  4.6620700000003 1.4908424908425
  4.7053320000023 1.4408791208791
    4.741064000003 1.5101831501831
  4.7931349999979 1.7769230769231
  4.8726120000035 1.5835164835165
  4.9529940000027 1.2321611721612
5.0321010000035    1.2998534798535
5.1271169999987    1.3457875457876
5.2065610000044    1.4312087912088
5.2848210000023    1.4884249084249
 5.360623999998    1.5206593406593
5.4388610000014    3.1920146520147
5.5184050000012    1.5472527472527
5.5984460000023    1.7148717948718
5.6777969999984    2.2032234432234
5.7746209999993     1.407032967033
5.8541389999986    1.5182417582418
5.9342110000029    1.5351648351648
6.0135340000019    1.5416117216117
6.0925790000036    1.5730402930403
6.1727679999992    1.5214652014652
6.2511070000008    3.1984615384615
6.3326030000001    1.4843956043956
6.4099460000023     1.632673992674
6.4910590000004     2.159706959707
6.5714090000019    1.2466666666667
6.6514109999984    1.2772893772894
6.7322950000018    1.3312820512821
6.8128430000022    1.3191941391941
6.9022740000039    1.3788278388278
6.9819060000032    1.4134798534799
 7.062012000002    3.1831501831502
7.1420830000043    1.4876190476191
7.2224580000043    1.6447619047619
7.3023690000027     2.188717948718
7.3817129999995    1.3320879120879
7.4594919999987    1.3570695970696
7.5500720000044    1.4054212454213
7.6297590000033     1.436043956044
7.7102330000028    1.4795604395604
7.7904900000021    1.6109157509157
7.8708840000033    1.6584615384615
7.9502349999994    1.6133333333333
8.0312239999995    1.6358974358974
8.1097089999989    1.8720146520146
8.1895380000025    1.8953846153846
8.2716719999984    1.3175824175824
8.3512410000041    1.3353113553114
8.4448640000001     1.349010989011
8.5143790000007    1.4215384615385
 8.594376000002    1.5085714285714
8.6741789999977    1.6342857142857
 8.756123999998    1.6205860805861
8.8371459999978    1.4223443223443
8.9164710000008    1.5222710622711
9.0066440000013    1.8881318681319
9.0865319999978    1.7132600732601
9.1667330000028    1.3240293040293
9.2464340000004    1.3973626373626
 9.326439000003     1.389304029304
9.4098660000041    1.4191208791209
9.4854919999987    1.5335531135531
9.5659360000044    1.4513553113553
9.6450460000038    1.4868131868132
9.7358159999996    1.5061538461538
 9.815813000001    1.8454212454212
9.8951689999998    1.9268131868132
9.9750190000013    1.3627106227106
10.054979000002    1.3772161172161
10.135093000002    1.4086446886447
10.215056000002    1.4352380952381
10.301642000005    1.4908424908425
10.379629000001    1.5238827838828
10.459417999998    1.5174358974359
10.540215000004    3.1928205128205
       10.621169   1.5037362637363
10.700803999998 1.6584615384615
10.779881999999    2.1315018315018
10.873039999999    1.2321611721612
10.952421000004    1.2724542124542
11.031064999998    1.3409523809524
11.110670000002    1.4223443223443
11.191475000001    1.4908424908425
11.269579000004    1.5553113553114
11.349631999999    1.6866666666667
11.428120999999    1.6520146520146
11.521884000003    1.7745054945055
11.601814000003    1.6568498168498
11.681803000003    1.9276190476191
11.761009000003    2.1081318681319
11.840171999998     1.447326007326
11.920078000002    1.4642490842491
12.000129000001    1.4392673992674
       12.076651   1.4150915750916
12.154822000004     1.423956043956
12.250943999998    1.4038095238095
       12.321706   3.1992673992674
12.401693999998    1.4110622710623
12.488545000002    1.5673992673993
12.568785000004    2.1556776556777
12.648776000001    1.2257142857143
12.730164999999    1.2950183150183
12.809755000003    1.2829304029304
12.890442000002    1.3183882783883
12.970725000002    1.3876923076923
13.050799000002    1.4634432234432
13.129710000001    1.6197802197802
13.209170000002    1.5907692307692
13.289357000001    1.5714285714286
13.369767999999     1.574652014652
13.450435000002    1.8188278388278
13.534517999999    2.0130402930403
13.615199000001    1.3586813186813
        13.69518   1.4312087912088
13.775726999998    1.5077655677656
13.857289999999    1.6487912087912
13.946149999999    1.6657142857143
14.026325999998    1.6753846153846
14.106030000001    1.6665201465202
14.185954999998    2.6246886446886
14.272292000003    1.5480586080586
14.342737000004    1.6391208791209
       14.431603   2.1379487179487
14.504605000004    1.2386080586081
14.584609999999    1.2071794871795
14.665197000004     1.256336996337
14.746140000001    1.3006593406593
14.826432999998    1.2700366300366
14.916832000002    1.3328937728938
14.996528000005    1.4134798534799
       15.076684   3.1984615384615
15.157322999999    1.4481318681319
15.237384999998    1.6310622710623
15.317017000005    2.2322344322344
15.397068000004    1.3071062271062
15.484354000002    1.3441758241758
15.555443999998    1.4062271062271
15.645443000004    1.4553846153846
15.726767999999    1.5311355311355
15.806120999999    1.6592673992674
       15.886941   1.7261538461538
15.967197999999     1.725347985348
16.047387000002    1.6858608058608
16.126600000001    1.6471794871795
16.206627000004    2.0251282051282
16.287414000004    1.4046153846154
      16.368434 1.2539194139194
       16.447423   1.3014652014652
16.540859000005    1.3473992673993
16.620873000003    1.4078388278388
16.701704999998    1.4795604395604
       16.779658   1.5641758241758
16.861164999999    1.4328205128205
16.939674000002    3.1871794871795
17.015759000003    1.5319413919414
17.096975000001    1.7172893772894
17.188340999998    2.2338461538461
17.264791000001    1.3248351648352
17.340925999999    1.3449816849817
17.420520999998    1.3756043956044
17.515708000004    1.4086446886447
17.592082000002    1.4537728937729
       17.673412   1.5061538461538
17.753491999999    1.6068864468865
17.831028999999    1.6713553113553
17.910476999998    1.8341391941392
17.987950999998    1.6044688644689
18.079818000004    1.7785347985348
18.159652000003    2.0597802197802
18.237171000004    1.3248351648352
18.317630000003    1.3280586080586
18.396388000004    1.3457875457876
18.475068000004    1.3868864468864
18.552969999999    1.4771428571429
18.631873999998     1.476336996337
18.727185000002     1.603663003663
18.805866000004    1.5206593406593
18.886096000001    1.5569230769231
18.965629000001    1.5158241758242
19.045572999999    1.8139926739927
19.125229000002    2.0565567765568
19.205241999999    1.4215384615385
19.285914000004    1.4287912087912
       19.365048   1.4465201465202
19.444497000001    1.4682783882784
19.525366999999    1.5408058608059
19.604182999998    1.5617582417582
19.701656999998    1.5569230769231
       19.778956   2.8672527472528
19.859086000003    1.6221978021978
19.939134000003    1.7954578754579
20.018278000005     2.240293040293
20.098516000003    1.2845421245421
20.178774000004    1.3111355311355
20.255428999998    1.3691575091575
20.335023000002    1.4094505494506
20.414773000002    1.4392673992674
20.510791000001    1.5271062271062
20.587115000002    1.4892307692308
20.664828000002    1.4344322344322
20.744123000003    1.5069597069597
20.822789999999    1.7092307692308
20.903013999999    1.6657142857143
        20.98182   1.2208791208791
       21.062908   1.2772893772894
21.157177000001    1.3675457875458
       21.236044   1.4553846153846
21.316995000005    1.4868131868132
21.396818000004     1.603663003663
21.476638999999     1.580293040293
       21.555191   1.5263003663004
21.634447000004    1.5835164835165
21.713895999998    1.8333333333333
21.793587999999       1.95663003663
        21.87407    1.441684981685
21.954067000002 1.4658608058608
22.033137000002 1.4489377289377
22.127446000002    1.4811721611722
22.207483000003    1.5335531135531
22.287449000001     1.627032967033
22.365214000002    1.5875457875458
22.445226000004    1.5706227106227
22.525318000004    1.6713553113553
22.604391000003     1.985641025641
       22.685213   1.7245421245421
22.764200999998    1.2950183150183
22.844659000002    1.2740659340659
       22.924897   1.2708424908425
23.017752000004    1.3216117216117
23.098289000004    1.4304029304029
23.176711000003    1.4295970695971
23.254594000004    1.3619047619048
23.331916000001    1.4892307692308
23.412368000001    1.8325274725275
23.492549000002    1.7688644688645
23.571928999998    1.2982417582418
23.667870000005    1.3425641025641
23.747528999999    1.3739926739927
23.827574000001    1.5182417582418
23.907300000005    1.6552380952381
23.985468000002    1.6455677655678
24.062677000001    1.5706227106227
24.141777000003    1.6318681318681
24.221756000005    1.8800732600733
24.303756000005    1.6778021978022
24.382307999998    1.3240293040293
24.461906999998    1.2861538461538
24.552586999998    1.4078388278388
24.625215000004    1.3764102564103
24.705273000002    1.6391208791209
24.786425999999    1.6423443223443
24.875752999999    1.5665934065934
24.956259999998    1.4964835164835
25.037109000005     1.789010989011
25.117443000004    1.4674725274725
25.195498999998    1.2184615384615
25.276410999999    1.2764835164835
25.356322000004     1.354652014652
25.436803000003    1.4384615384615
25.517634000003    1.5964102564103
25.611402000003    1.7132600732601
25.681112000003     2.634358974359
25.760806000002    1.5504761904762
25.840634000003    1.8228571428571
       25.920342   2.2120879120879
26.000469999999    1.3288644688645
26.091328000002    1.3530402930403
26.171410999998    1.3788278388278
26.251995000005    1.4094505494506
26.331763999999    1.4924542124542
26.409968000002    1.4795604395604
26.487267000005    3.1887912087912
       26.582077   1.4723076923077
26.662296000004    1.6786080586081
26.741899000004    2.2177289377289
26.822060000002    1.2224908424908
       26.901842   1.2539194139194
26.982932999998    1.3071062271062
27.063508000001    1.3997802197802
       27.141842   1.4739194139194
27.221539999999    1.5367765567766
27.301579999998    1.5496703296703
27.377950000003    3.1887912087912
27.473520000003    1.5335531135531
27.552697000004 1.6810256410256
27.630086999997 2.2008058608059
27.706708999999 1.3796336996337

27.786188000001    1.3965567765568
27.866127999999    1.4771428571429
       27.946206   1.4908424908425
28.026443000004    1.4924542124542
28.119932000004    1.5158241758242
28.197924000002    1.5714285714286
28.277947999999    1.5657875457876
28.357167999998    3.1928205128205
       28.434349   1.5134065934066
28.513267000005    1.6600732600733
28.593589000002    2.1782417582418
28.673050000005    1.3328937728938
28.753748000003    1.3183882783883
28.845870000005     1.279706959707
28.924844999999    1.3038827838828
29.002045000002    1.3707692307692
29.080561000004    1.4578021978022
29.171067000002       1.56336996337
29.250675000004    1.5528937728938
29.328149999999    1.4553846153846
29.408653999999    1.5625641025641
       29.488077   1.8438095238095
29.568740000002     1.887326007326
29.645052000001    1.3345054945055
29.725251000002    1.3707692307692
29.817550999999    1.4835897435897
29.896494000003    1.5214652014652
29.974881000005    1.5553113553114
30.052763999999    1.5754578754579
30.131792999998     1.661684981685
30.210997000001    1.5947985347985
30.291627000004    1.8647619047619
30.381259999998    1.5263003663004
30.462502999999     1.719706959707
30.543093000002    2.1008791208791
30.628223999999    1.3095238095238
30.701622000001    1.3530402930403
30.781164000005    1.3812454212454
30.861310000002    1.3699633699634
30.943061000004    1.4263736263736
31.022719000004    1.4843956043956
31.101899999999    1.5907692307692
31.191608000003    1.5625641025641
       31.272206   1.4795604395604
31.351541000001    1.6060805860806
31.431123000003    1.8969963369963
31.512012000002    1.8010989010989
31.592780000001    1.3079120879121
31.677887000002    1.3312820512821
       31.758169   1.3812454212454
31.838751000002    1.4932600732601
31.918417999998    1.5545054945055
       31.998261   1.5883516483516
32.077844000004    1.5778754578755
32.158306000002    3.1912087912088
32.238258000001    1.5142124542124
       32.322419   1.6931135531135
       32.401224   2.2209523809524
32.482770000003    1.2837362637363
32.563910999998    1.3151648351648
32.645042999998       1.34336996337
32.727807000004    1.4110622710623
32.807289000005     1.423956043956
32.887509000003    1.4578021978022
32.968557999998    1.5545054945055
33.046912000001    1.5432234432234
33.127028000005    1.4312087912088
33.207376000002    1.6004395604396
33.287530000001    1.9147252747253
33.377046000004    1.7180952380952

       33.458423   1.3103296703297
33.538359000005    1.3707692307692
33.619171000004     1.389304029304
       33.702114   1.4368498168498
33.772662000001    1.4932600732601
33.862879000001    1.6753846153846
       33.943548   1.6367032967033
34.023311999999    1.5085714285714
34.103895999998    1.6157509157509
34.183718000002    1.8695970695971
34.272435000002    2.0057875457876
34.342656999998    1.2998534798535
34.421552000001                1.32
34.502192000002                1.32
34.582412000001    1.3610989010989
34.673655000001     1.441684981685
34.748394000001    1.5698168498169
34.829552000001    1.4586080586081
34.907862999998    1.4553846153846
       34.987941   1.4924542124542
35.077868000001    1.8518681318681
35.158725000002    1.7027838827839
35.238664000004    1.3167765567766
35.319204000004    1.3554578754579
35.398116000004    1.3933333333333
35.478328000002    1.4505494505495
       35.557783   1.5101831501831
35.638336999997    1.5408058608059
35.726130000003    1.6520146520146
35.804178000003    1.6536263736264
35.885226000003    1.6350915750916
35.964381000005    1.6415384615385
       36.043853   1.8284981684982
       36.123511   2.0944322344322
       36.204272   1.3248351648352
36.295508000001    1.3473992673993
36.375788000003    1.3482051282051
36.455637000002    1.4030036630037
36.536686999999    1.4537728937729
36.615398000002    1.5214652014652
36.695571000002    1.5794871794872
36.776149000004    1.5810989010989
36.854372000001    1.9018315018315
36.932535999998    1.4835897435897
37.026881000005    1.5875457875458
37.107226999998    2.0154578754579
37.187718000002    1.4102564102564
37.266108000003     1.308717948718
37.345035000004    1.3731868131868
37.423138999999    1.3691575091575
37.502483000003    1.4223443223443
       37.582978   1.4884249084249
37.663153999999    1.4908424908425
37.742072999999    1.9735531135531
37.822631000005    1.6181684981685
37.918593000002    1.7229304029304
37.997851000004    2.1435897435897
38.077723000005    1.4618315018315
38.156359000005    1.3409523809524
38.236898000002     1.378021978022
       38.316408   1.4102564102564
38.396285999998    1.4545787545788
38.476152000003    1.4835897435897
38.556629000001    1.5545054945055
38.636906999998    1.5496703296703
       38.717099   3.1952380952381
38.808245999999    1.5085714285714
       38.887952   1.6044688644689
38.968296000004    2.1194139194139
39.045501000002    1.2676190476191
39.124689000003    1.3046886446886
39.203391000003    1.3651282051282
39.284020000003    1.4118681318681
39.364311999999    1.4852014652015
       39.443456   1.5279120879121
39.522979000002    1.6213919413919
39.603142000005     1.580293040293
39.697302000001    1.6125274725275
39.774778999999    1.5553113553114
39.853821000002    1.8502564102564
39.933734000005    2.1540659340659
40.014101000003     1.394945054945
40.093167000003    1.3957509157509
40.170807000004    1.4312087912088
40.266561999999    1.4336263736264
40.342994000003    1.4843956043956
40.421708999999    1.5504761904762
40.499174000002     1.609304029304
40.577920000002     1.545641025641
40.655796999998    1.6141391941392
40.735807000004    1.6536263736264
40.832629000001    1.8744322344322
40.911152000003    1.6052747252747
40.990300999999    1.2410256410256
41.068939000003    1.2990476190476
41.146822999999    1.3296703296703
41.225633000001    1.3884981684982
41.305523000002    1.4610256410256
41.385667999998     1.574652014652
41.465663000003    1.5504761904762
41.560410999999    1.5254945054945
41.641241000004    1.5359706959707
41.719703000002    1.7664468864469
       41.798316   2.0114285714286
41.876336000003     1.412673992674
41.955501000002    1.4231501831502
42.036263999999    1.4199267399267
42.117112000004    1.4586080586081
42.196807999998    1.4924542124542
42.275295000002    1.5295238095238
       42.368077   1.5295238095238
42.448229000002    3.1920146520147
42.526675999999    1.4892307692308
42.606171999998     1.643956043956
42.686848999999    2.1153846153846
42.766458000004    1.3183882783883
42.845848999999    1.2893772893773
42.927230999999       1.34336996337
43.005368000001    1.3941391941392
43.085248000003    1.4658608058608
43.165498999998    1.5311355311355
43.261616999999    1.5472527472527
43.341891000003     3.201684981685
43.421788000003    1.5279120879121
43.501949000001    1.6794139194139
43.581096000001    2.1774358974359
43.661681000002    1.3030769230769
43.740714000002    1.3216117216117
43.819093000002    1.4505494505495
43.898046999998    1.5093772893773
43.979148000002    1.5472527472527
44.058414000004     1.569010989011
44.139226000003    1.5391941391941
44.218973000005    3.1630036630037
44.312391000003    1.4956776556777
44.392072000004    1.6334798534799
44.471015000001    2.1411721611722
44.552175000005    1.3071062271062
44.631671000004     1.314358974359
       44.710816   1.3506227106227
       44.789625   1.3997802197802
44.869321000002    1.3619047619048
44.949859000005    1.4271794871795
45.029789999999    1.5021245421245
45.109756000005    1.4811721611722
45.189693999998    1.5408058608059
45.286046000004    1.5988278388278
       45.365566   1.9614652014652
45.445049000002    1.5408058608059
       45.525044   1.3506227106227
45.605758000001    1.3764102564103
45.685991999999    1.4223443223443
45.765325000003    1.4642490842491
45.844689000003    1.5859340659341
45.924550999999    1.6342857142857
46.004186999999    1.6415384615385
46.086211000003    3.1984615384615
46.164780000001    1.5609523809524
46.244947000004    1.7124542124542
       46.324625   2.2709157509158
        46.40357   1.2990476190476
46.499770000003    1.3119413919414
46.579914000004    1.3522344322344
        46.66025   1.3659340659341
46.739745000005    1.3884981684982
46.819973000005    1.3747985347985
       46.898728   2.1548717948718
        46.97775   1.3764102564103
47.057763000004    1.5383882783883
47.137439999998    2.0533333333333
47.217612000003    1.3385347985348
47.297730000004     1.308717948718
47.378100000002    1.3667399267399
47.457917000003    1.4215384615385
47.551638999999    1.4747252747253
47.630302000001    1.5327472527473
        47.70975   1.6020512820513
       47.788401   1.5536996336996
47.867137000002    1.6858608058608
47.944546000004     1.672967032967
48.038057000004    1.9735531135531
48.115719000004     1.701978021978
48.193041000001    1.3610989010989
48.272550000005    1.3715750915751
       48.352125   1.4005860805861
48.431822999999    1.4279853479853
48.512204000004    1.4634432234432
48.593377999999    1.5126007326007
48.672590000004     1.534358974359
48.754946000002    3.1968498168498
48.834916000001    1.4457142857143
48.921932000004    1.6133333333333
49.002105000004    2.1927472527473
49.081443999998    1.2926007326007
49.161663000002    1.3159706959707
       49.241978   1.3828571428571
       49.322559   1.3989743589744
       49.402066   1.4320146520146
49.482232000001     1.476336996337
49.561726000004    1.5673992673993
49.651622000001    1.5214652014652
49.733947000004    1.5673992673993
49.813590000004    2.0347985347985
49.892208000004    1.5085714285714
49.968512000002    1.3570695970696
50.047535999999     1.4158974358974
50.137799000002     1.4247619047619
       50.217151    1.4610256410256
50.305182000004     1.5021245421245
       50.384934    1.5794871794872
50.464175000005     1.5359706959707
50.543524999999     2.0565567765568
50.623484000005      1.510989010989
50.703322000004     1.7446886446886
50.781508000001     2.1548717948718
50.860980999999     1.2466666666667
       50.941375    1.2934065934066
51.034535000004     1.3393406593407
51.112457000002     1.4046153846154
51.191142000005     1.5021245421245
51.272012000002     1.5625641025641
51.349903999999      1.574652014652
       51.427724     2.096043956044
51.506141000003     1.5335531135531
51.601061000004     1.6399267399267
       51.677228     2.096043956044
51.757046000004      1.378021978022
       51.834169    1.3554578754579
51.913300000004     1.4118681318681
       51.992412    1.4223443223443
52.072664999999     1.4457142857143
52.152704000004     1.5117948717949
52.247039999999     1.4916483516484
52.321906000003     1.4078388278388
52.402609000005     1.5101831501831
52.482813000001     1.8244688644689
52.562373000003     1.7229304029304
52.642127999999     1.2764835164835
52.723395000003     1.3345054945055
       52.804048    1.3691575091575
52.884167999998     1.3901098901099
52.970420000002     1.4408791208791
53.050928999998     1.5230769230769
53.130645999998     1.5351648351648
53.211328000002     3.1887912087912
       53.289544    1.5254945054945
53.369715999998     1.6431501831502
53.450351999998     2.1605128205128
53.530487999998     1.3594871794872
           53.611   1.3619047619048
53.691115000002     1.3860805860806
       53.772717    1.4368498168498
53.862504000001     1.5657875457876
53.941685000002     1.6173626373626
       54.017283    1.6479853479853
54.096416000001     1.5835164835165
        54.17718    1.5335531135531
54.271888999999     1.5496703296703
54.342769000001     1.9171428571429
54.421774999998     1.5915750915751
54.501865000002     1.2611721611722
       54.591173     1.308717948718
54.671542999998     1.3224175824176
54.751891000003     1.3828571428571
54.831575999998     1.4054212454213
54.911877999999     1.4046153846154
       54.987206     3.207326007326
55.077678999998      1.452967032967
55.156939999998     1.6657142857143
55.236303000003     2.2201465201465
55.316377999999     1.3312820512821
55.397083000004     1.3619047619048
       55.477805    1.3828571428571
55.557700000003     1.4312087912088
       55.637963    1.4876190476191
55.715127999999    1.5730402930403
55.805383000001    1.5754578754579
55.884748999998     3.114652014652
55.957740000002    1.5794871794872
       56.043842   1.6810256410256
56.123733000003    2.1105494505494
56.203814000003    1.3764102564103
56.294987999998    1.3361172161172
56.374579999998     1.372380952381
       56.454103   1.4102564102564
56.534175999999    1.4320146520146
       56.614489   1.4908424908425
56.694310000002     1.614945054945
       56.772783   1.5891575091575
56.852640000001    1.5101831501831
56.934182999998    1.5021245421245
57.011976999998    1.7342124542124
57.106699000001    2.0315750915751
57.186763999999    1.3369230769231
57.267825999998    1.3812454212454
57.345571000002    1.4110622710623
57.426071000002    1.4376556776557
       57.504599   1.4908424908425
57.584432000004    1.4868131868132
57.663844000004    3.1952380952381
57.743722000003     1.481978021978
57.822744000003    1.6713553113553
57.903410999998    2.1734065934066
57.983818999998    1.3578754578755
58.077482000001    1.3441758241758
58.156631999999    1.3868864468864
58.236884999998    1.4158974358974
58.317377000004    1.4545787545788
58.396089000002    1.5037362637363
58.475401000001    1.5222710622711
58.555447000004    3.1928205128205
58.636225000002    1.6310622710623
58.714866999999    1.7825641025641
58.794133000001     2.252380952381
       58.874316   1.3022710622711
58.969692000002    1.3135531135531
       59.046162      1.34336996337
59.123322000004    1.3844688644689
        59.20175   1.4408791208791
       59.279952   1.5335531135531
59.359248999998    1.5246886446886
59.454215000004     1.441684981685
59.534530000001    1.5069597069597
59.612785999999    1.7736996336996
59.692388000004    1.9098901098901
59.771946000002    1.3119413919414
59.852954999998    1.4263736263736
59.933859000005    1.4642490842491
60.012754000001    1.5021245421245
60.092678000003    1.5536996336996
60.172743000001    1.5577289377289
       60.253592   1.7954578754579
60.331589000002       1.51663003663
60.412247000001    1.5931868131868
       60.508158   2.0009523809524
60.589028000005    1.4102564102564
60.667758000001    1.2829304029304
60.747829000004    1.3393406593407
       60.828147      1.34336996337
60.907670000002    1.3449816849817
60.989605000004    1.3747985347985
61.068399000004    2.7157509157509
61.147527000003    1.4457142857143
61.224170000002    1.5939926739927
61.304513000004     2.0920146520147
61.384645999998     1.3627106227106
61.479515000001     1.3441758241758
61.559990000002     1.4046153846154
61.640192000002     1.4312087912088
61.719208999999     1.5045421245421
61.799969999999     1.6117216117216

61.878835000001     1.6358974358974
61.958336999997     1.5198534798535
62.038538000002     1.6189743589744
62.119346000001     1.8397802197802
62.199462999999     1.9542124542124
62.277403999999     1.3224175824176
62.357233000003     1.3530402930403
62.437369000003     1.3683516483517
62.531965000004     1.4223443223443
62.611392999999     1.4723076923077
62.690328000002     1.4731135531135
62.769733000003     2.5884249084249
62.851215000004     1.4215384615385
       62.929081    1.5408058608059
63.010355000004     2.0114285714286
63.088436000004     1.3385347985348
63.168517999999     1.3328937728938
63.249432999998      1.412673992674
63.328318999998     1.4408791208791
63.408528999999     1.4924542124542
63.503616000004     1.5915750915751
63.583052000001     1.5617582417582
63.661802000001     1.4505494505495
63.741686000004     1.5545054945055
63.821079999998      1.863956043956
63.901425999999     1.7793406593407
63.980534000002     1.3482051282051
64.060436999999      1.389304029304
64.138414000005     1.3852747252747
       64.218048    1.4497435897436
64.302167999998     1.4723076923077
64.382083999999     1.4860073260073
64.462292000003     1.9993406593407
       64.542048    1.4569963369963
64.622660999998     1.5673992673993
64.703354000002     2.0138461538462
64.784697000004     1.3852747252747
64.873417999998     1.2708424908425
64.954015000001      1.314358974359
           65.035   1.3764102564103
65.112892000005     1.4312087912088
65.193965000004     1.4868131868132
65.273976000004     1.5375824175824
65.353998000003     1.5835164835165
65.434265000001     1.5673992673993
65.514387000002     1.6278388278388
65.593954000004     1.9936996336996
65.673906000003     1.5174358974359
65.755675999999     1.3570695970696
       65.845276    1.4457142857143
65.925476999998     1.4868131868132
66.005361000001      1.528717948718
66.092578000002     1.5601465201465
66.162743000001     1.5770695970696
66.242903999999      1.574652014652
66.332781000003     1.5214652014652
66.411648000002     1.5601465201465
66.492313000001     1.9445421245421
66.572039999999     1.4449084249084
66.652560000002     1.2531135531135
66.735343000002     1.3063003663004
66.815236000001     1.3328937728938
66.894575999998                1.32
66.973523000002     1.394945054945
       67.058717   1.4247619047619
67.139986000001    3.1936263736264
67.219359000005    1.4674725274725
67.299318999998    1.6213919413919
67.379785000004    2.1645421245421
67.461171000004    1.3320879120879

       67.539923   1.3699633699634
67.619763999999    1.3876923076923
67.699572999999    1.4336263736264
67.780252999999    1.4980952380952
67.860098000005    1.6189743589744
67.951829000004    1.6310622710623
68.031328000002    3.1815384615385
68.110030000001    1.5682051282051
68.189859000005    1.6923076923077
68.272557000004    2.1347252747253
68.350906000003    1.3683516483517
       68.431217   1.3449816849817
68.511721000001    1.3554578754579
       68.592044   1.3844688644689
68.672369000003    1.4441025641026
68.753741999999    1.5029304029304
       68.834772   1.5528937728938
68.913193999998    1.4900366300366
68.993322999999    1.4231501831502
69.082545000002    1.5230769230769
69.157068000004     1.829304029304
69.237340000004    1.8317216117216
69.327027000003    1.3361172161172
69.407351999998    1.3675457875458
69.487182000004    1.3933333333333
69.567438000001    1.4505494505495
69.647100000002    1.5037362637363
       69.728423   1.5117948717949
69.808726000004    3.2000732600733
69.888627999999    1.5875457875458
69.968939999998    1.7100366300366
70.048318999998    2.1863003663004
70.142931000002    1.3312820512821
70.213028999999    1.3312820512821
70.292303000003    1.3691575091575
        70.37168   1.4046153846154
70.452524999999     1.436043956044
70.532204999998    1.4972893772894
70.622409000002     1.505347985348
       70.695136   2.1589010989011
70.776050999999    1.4779487179487
70.856145999998    1.5093772893773
70.946178000003    1.9501831501831
71.027586000003    1.3482051282051
       71.105831   1.3038827838828
        71.18907    1.383663003663
71.269215999998    1.4086446886447
71.350383000001    1.4610256410256
71.429769000001    1.5254945054945
       71.510599    1.592380952381
       71.610401   1.5351648351648
71.670167000003     1.569010989011
71.750083999999    1.5947985347985
71.830528999999    1.9735531135531
71.910825000003     1.701978021978
71.991145999998    1.3482051282051
72.080089000001     1.378021978022
72.157351999998    1.3997802197802
        72.23593   1.4167032967033
72.321289000004    1.5142124542124
72.402140000001    1.4642490842491
72.483399999998    2.5352380952381
72.562868000001    1.4989010989011
72.642612000003    1.6971428571429
72.723006000005    2.1580952380952
72.802888999999    1.2821245421245
72.883317000002    1.2611721611722
       72.964364   1.3159706959707
73.044090000004    1.3828571428571
       73.124658   1.4336263736264
73.213071000002    1.5827106227106
       73.292853   1.5730402930403
73.373023000002     2.981684981685
73.453424000002    1.5383882783883
       73.534831   1.7398534798535
73.613851999998     2.211282051282
73.693892000005    1.3425641025641
73.774925999999    1.3844688644689
73.854061999999    1.4811721611722
73.934546999998    1.5295238095238
       74.014717   1.5472527472527
74.104619000003     1.632673992674
74.192009999998    1.5827106227106
74.259987999998    1.5827106227106
74.349792000003    1.5601465201465
       74.429897   1.8115750915751
74.509502999999    1.9276190476191
74.590626000002    1.2660073260073
74.669644000001    1.3216117216117
74.748038000002    1.3538461538461
74.825707000002    1.3385347985348
       74.905048   1.3812454212454
75.001392000005     1.383663003663
75.080483000003    3.1847619047619
       75.160224   1.4602197802198
75.239597000003    1.6060805860806
75.318122000001    2.1403663003663
75.396719999999    1.3224175824176
75.477832000002     1.325641025641
75.554082000002    1.3925274725275
75.649152000003     1.418315018315
75.729013999999    1.4803663003663
75.809140000001    1.5939926739927
75.887734000005    1.6028571428571
75.967982000001    3.1049816849817
       76.048923   1.5738461538461
76.126578000002    1.7471062271062
76.205718000002    2.2298168498168
76.282321000002    1.3054945054945
76.371850000002    1.3441758241758
76.452504000001    1.3667399267399
76.532428999998    1.4102564102564
76.612317000002    1.4602197802198
76.692762000002    1.5673992673993
76.773256000005    1.5303296703297
76.853109999999    1.4279853479853
76.933464000002    1.4658608058608
77.014013000004    1.7027838827839
77.093564999998    2.0041758241758
77.173046999998    1.3046886446886
77.256436999999     1.372380952381
77.336866999999    1.4191208791209
       77.416114   1.4658608058608
77.496107000001    1.4989010989011
77.576916000001    1.5472527472527
       77.666809   1.5770695970696
       77.747489   3.1871794871795
77.827156000003    1.5891575091575
77.907649000004    1.8091575091575
77.987718000002    2.2572161172161
78.067976999998    1.3804395604396
78.147263000004    1.3957509157509
78.228586999998    1.3965567765568
78.312859000005    1.4287912087912
78.391491000004    1.5311355311355
78.473052000001    1.5964102564103
78.553262000002    1.6568498168498
78.633039000005    1.5665934065934
78.715877000004    1.5851282051282
78.795675000004    1.9501831501831
78.873824000001    1.3393406593407
78.953844999999    1.2095970695971
79.034840999998    1.2845421245421
79.124138999999    1.3328937728938
79.207888999999    1.4005860805861
79.283938000001    1.5311355311355
79.362574000001    1.5021245421245
79.443359000005    1.4086446886447
79.523075000003    1.5496703296703
79.602484999999    1.8075457875458
79.684545000002    1.9195604395604
79.763491000004    1.3280586080586
79.843848999999     1.412673992674
79.934057999998    1.4465201465202
80.014697999999     1.476336996337
80.093270000003    1.5279120879121
80.174131000005    1.5150183150183
80.254851999998    3.1984615384615
80.332020999998    1.5085714285714
80.410892000005    1.6649084249084
80.507004000001    2.1589010989011
80.585888999999     1.308717948718
80.666355000004    1.3353113553114
80.747061999999    1.3739926739927
80.826028999999    1.3659340659341
80.905976999998     1.394945054945
80.987447000004    1.5085714285714
81.066594999999    1.5077655677656
       81.145849   1.4271794871795
81.225964000002    1.5520879120879
81.306497000001    1.8607326007326
81.385361000001    1.7954578754579
81.462436999999    1.3353113553114
       81.557309   1.3731868131868
81.636950000003    1.3965567765568
81.717107000001    1.4191208791209
81.796946000002    1.4698901098901
81.876344000004    1.5883516483516
       81.956434   1.5609523809524
82.037366999999    1.6117216117216
82.117351000003    1.9969230769231
82.196861000001    1.4046153846154
       82.284011   1.2805128205128
82.361524999998    1.3482051282051
        82.44157   1.3933333333333
82.523512000002     1.436043956044
82.602880000003    1.5093772893773
       82.683886   1.4972893772894
82.763034000002    3.1638095238095
       82.843342   1.4731135531135
82.923774000004    1.6318681318681
83.003366999999    2.1234432234432
83.083747000001    1.3054945054945
83.163118000001    1.3361172161172
83.249401000001    1.4005860805861
83.326189999998    1.4328205128205
83.405545000002    1.4980952380952
83.486472000003    1.6294505494506
83.577068000004    1.6125274725275
83.656807999998    1.6012454212454
83.738979000002    1.5778754578755
83.818497000001    1.8228571428571
83.898528000005    2.0799267399267
83.979085000001    1.3772161172161
84.058737999998    1.3925274725275
84.138755000003    1.4021978021978
84.219028000005    1.4304029304029
       84.306276   1.5198534798535
84.385653000005    1.5069597069597
84.463755000003    1.4021978021978
84.543232000001    1.5303296703297
84.623109000005    1.7986813186813
84.704178999998    1.7454945054945
84.784068000004    1.2893772893773
84.879193000004    1.2942124542125
84.957910999998    1.3417582417582
85.037523000002    1.3804395604396
85.120468000002    1.4626373626374
85.200476999998    1.5311355311355
       85.278463    2.894652014652
85.358855999999    1.4787545787546
85.438689000003    1.6213919413919
       85.517724   2.0775091575092
85.599186999999    1.3280586080586
85.677792999998    1.3441758241758
85.756813000001    1.3828571428571
85.837490000002    1.4634432234432
85.916292000003    1.5553113553114
86.013204999998     1.580293040293
       86.093206   1.5665934065934
86.172215000004    2.4385347985348
86.252664000005    1.5359706959707
86.328861000001    1.6358974358974
86.409159000002    2.0525274725275
86.490109000005    1.3643223443223
86.569891000003    1.3417582417582
86.650733000003    1.3901098901099
86.731876000002     1.418315018315
       86.811526   1.4424908424908
86.891241000004    1.4505494505495
86.970868000001    1.6084981684982
87.050824000001    1.5472527472527
87.131844999999    1.4852014652015
87.211659000002       1.51663003663
87.309640000001    1.7608058608059
87.379428000003    1.8510622710623
87.460285000004    1.2926007326007
87.539800999999     1.360293040293
87.619884000003    1.4086446886447
87.699802000001    1.4295970695971
87.781063000001    1.4956776556777
87.860905000001    1.6318681318681
87.940517999999    1.5931868131868
88.031711000003    1.5303296703297
88.110987000004     1.592380952381
88.190906999998    1.8438095238095
88.271181000002       1.78336996337
88.346638000004    1.3248351648352
88.426516000003    1.3482051282051
88.506766000003    1.3925274725275
88.596824000001    1.4376556776557
        88.67657   1.4892307692308
88.758258000001    1.5279120879121
88.838398000002    1.4972893772894
88.918377000004    3.1597802197802
88.998594999999    1.4739194139194
89.077892000005    1.6544322344322
89.157748000003    2.1468131868132
        89.23857   1.3530402930403
89.326428000003    1.3981684981685
89.405767999999    1.4231501831502
89.486936999999    1.4634432234432
89.566813000001    1.5375824175824
89.646504000001    1.6197802197802
       89.727478   1.5827106227106
89.807351999998    1.6600732600733
89.887306000002    1.5988278388278
89.968134000003     1.823663003663
90.047034000002    1.9840293040293
90.134998000003    1.3232234432234
90.212424000002    1.3619047619048
90.293938000001    1.3731868131868
90.373881000005    1.4110622710623
90.454038000002    1.4618315018315
90.532329999998    1.4747252747253
90.613715000004    3.1871794871795
90.709995999999    1.5021245421245
90.787539000005    1.6310622710623
90.868031999998    2.0275457875458
90.947414000004    1.2958241758242
91.028611000001    1.3304761904762
91.108061999999    1.3473992673993
91.187285999998     1.394945054945
91.267196000002    1.4384615384615
91.345471000001    1.5625641025641
91.425197999999    1.5190476190476
91.504835000001    1.4279853479853
       91.585599   1.5424175824176
       91.678787   1.7575824175824
91.755982000001    2.0283516483516
91.835770999998    1.3522344322344
91.917484000005    1.4537728937729
91.993442000002    1.4505494505495
92.071767999999    1.4779487179487
92.151792000003     1.510989010989
       92.246033   1.5827106227106
92.325748000003    1.4827838827839
92.404050000005    1.5545054945055
92.483656000003    1.5770695970696
92.563828000002    1.8413919413919
92.643829000004    1.6246153846154
92.725175000004    1.3473992673993
92.805192000002    1.3578754578755
92.884579000004     1.325641025641
92.964722000003    1.3635164835165
93.044355999999    1.4537728937729
93.125506000005    1.4900366300366
93.205008000001    1.5021245421245
93.285240000002                1.54
93.370181000002    1.5956043956044
93.451387000002    1.9203663003663
93.585704000004    1.5061538461538
93.729644000001    1.3506227106227
93.802443000004     1.383663003663
93.844513999999    1.4287912087912
93.908390000001    1.5391941391941
93.953196000002    1.6221978021978
94.023274000004    1.5867399267399
94.102759999998    1.4384615384615
94.182634999998    1.5722344322344
94.262844000004    1.8969963369963
94.340950999998     1.592380952381
94.420707000002    1.2547252747253
       94.500849   1.3183882783883
94.580502000004    1.3683516483517
94.675659000002    1.4441025641026
94.755013000004    1.6028571428571
94.835811999999    1.7317948717949
94.915086000003    1.5480586080586
94.995347000003    1.5738461538461
95.075133000001    1.8784615384615
95.155107000001    1.2772893772894
       95.235276   1.1612454212454
95.315585000001    1.2974358974359
95.393123000003    1.3909157509157
95.471052000001    1.4505494505495
95.551034000002    1.4747252747253
97.041075000003    1.9252014652015
97.082082000002     1.505347985348
       97.128261    1.614945054945
       97.180408   2.1274725274725
97.237629000001    1.5271062271062
97.286906000003    1.4408791208791
97.326067000002    1.4481318681319
97.390236000001    1.4215384615385
97.443870000005    1.4892307692308
97.480133000001    1.6012454212454
97.508859000005    1.5230769230769
97.534674000002    1.3054945054945
97.560116999999    1.5045421245421
       97.586151   1.8567032967033
97.612506999999    2.0646153846154
       97.637794   1.4094505494506
97.663289999999       1.29663003663
97.688892000005    1.3224175824176
97.715851000003    1.2934065934066
97.741835000001    1.3860805860806
97.767627000004    1.5134065934066
97.795278999999    1.6955311355311
97.823601000004     3.178315018315
97.852873999998     1.476336996337
97.881870999999    1.6713553113553
97.912237999998    2.1492307692308
97.943498999998    1.3441758241758
       97.970864   1.3514285714286
98.002403999999    1.5488644688645
98.030723000005    1.5029304029304
98.071700000003    1.5561172161172
98.152140000001    1.5045421245421
       98.234195   1.4352380952381
98.311120000005    3.0389010989011
       98.390548    1.505347985348
98.469585000001    1.5488644688645
98.566343000002    2.0501098901099
98.643031000003    1.3699633699634
98.722678999998    1.3643223443223
98.798943000004    1.4038095238095
98.879064000003    1.3876923076923
       98.956467   1.4191208791209
99.036523000002     1.481978021978
99.117034000002    1.5424175824176
99.196616000004     1.481978021978
99.275501000002    1.5416117216117
       99.371989   1.5964102564103
99.453031000003    1.9211721611722
99.530324000001    1.5843223443223
99.605828000002    1.3473992673993
       99.684397    1.389304029304
99.763013000004    1.4150915750916
99.855968000002    1.4908424908425
99.935851999998    1.5738461538461
      100.013325   1.5738461538461
      100.091433   1.7124542124542
      100.167411   1.5440293040293
      100.247656   1.5827106227106
      100.343628   1.9598534798535
      100.423498   1.4384615384615
      100.502159   1.3111355311355
       100.58135   1.3498168498168
     100.659272    1.3812454212454
     100.737393     1.436043956044
     100.816092    1.4755311355311
     100.896396    1.4199267399267
     100.976232    2.2032234432234
     101.070899    1.4537728937729
     101.150281    1.5899633699634
     101.231183    2.0065934065934
     101.310681    1.4013919413919
     101.390967    1.3312820512821
     101.470183     1.389304029304
      101.55055    1.4408791208791

      101.628638   1.4811721611722
      101.709418   1.5295238095238
      101.788146   1.5254945054945
      101.868036   3.1944322344322
      101.948696   1.6254212454212
      102.044605    1.748717948718
      102.124255   2.1983882783883
      102.203974   1.3336996336996
      102.283415   1.3514285714286
      102.361517   1.3957509157509
102.44102800001    1.4134798534799
       102.52054   1.4578021978022
      102.599611   1.5464468864469
      102.680621   1.5214652014652
      102.759384   1.4586080586081
      102.839076   1.5134065934066
      102.935226   1.7608058608059
103.01550600001    1.7906227106227
      103.095252   1.2934065934066
      103.175141    1.354652014652
      103.256421   1.4078388278388
      103.335509   1.4553846153846
      103.415082      1.56336996337
       103.49346   1.5553113553114
      103.573368   1.4561904761905
103.65140300001    1.5488644688645
       103.73186   1.8333333333333
      103.811729   1.7696703296703
      103.891972    1.389304029304
      103.987884   1.4263736263736
      104.068289   1.4368498168498
      104.148358   1.4618315018315
      104.227806   1.4989010989011
      104.307405   1.5037362637363
      104.388116   3.1952380952381
      104.467022   1.4932600732601
      104.545364    1.672967032967
      104.623224   2.1395604395604
      104.704244   1.2740659340659
      104.783731   1.3312820512821
      104.863076    1.308717948718
      104.958129    1.360293040293
      105.038343   1.4271794871795
      105.117542   1.4578021978022
      105.196583   3.1912087912088
      105.275958   1.5077655677656
      105.357603   1.6471794871795
      105.437933   2.1540659340659
      105.515707   1.3336996336996
      105.594492   1.3562637362637
      105.672811   1.3957509157509
      105.766672   1.4223443223443
105.84584800001    1.5230769230769
       105.92609   1.6600732600733
      106.004733   1.6012454212454
      106.085463   1.5013186813187
      106.165729   1.6278388278388
       106.24373   1.9187545787546
      106.322922   1.7374358974359
      106.402947   1.3369230769231
      106.496153    1.354652014652
      106.573673   1.4046153846154
      106.653524   1.4223443223443
106.73315300001    1.5013186813187
      106.810119   1.4102564102564
      106.889719   1.3320879120879
      106.967854   1.4481318681319
      107.064946   1.8454212454212
      107.144095    1.499706959707
      107.224554   1.2700366300366

     107.304554    1.3304761904762
     107.384748    1.3941391941392
     107.462353    1.4513553113553
     107.540864    1.5037362637363
      107.62017    1.5142124542124
     107.701047    3.2008791208791
     107.780209    1.5263003663004
     107.860194    1.7261538461538
     107.941032    2.2821978021978
     108.019926    1.3804395604396
      108.11405     1.378021978022
     108.194025    1.4005860805861
     108.273857    1.4320146520146
      108.35346    1.4634432234432
      108.43488    1.5649816849817
     108.511675    1.5351648351648
     108.590733    1.4843956043956
      108.66909    1.5359706959707
     108.764079    1.7882051282051
     108.843898    1.9098901098901
     108.923474    1.2603663003663
     109.001842    1.3127472527472
     109.080854    1.3933333333333
     109.159602    1.4384615384615
     109.239338    1.5134065934066
     109.317923    1.5190476190476
     109.398113    3.1952380952381
     109.491252    1.5045421245421
     109.570985    1.6939194139194
      109.65151    2.2257875457875
     109.731281    1.2813186813187
     109.810442    1.3014652014652
     109.890441     1.412673992674
     109.969571    1.4400732600733
      110.04844    1.4642490842491
     110.128004    1.5424175824176
     110.207681    1.4932600732601
     110.302869     1.412673992674
     110.383261    1.5375824175824
     110.462558    1.8131868131868
     110.542436    1.7745054945055
     110.622954    1.3014652014652
     110.702833    1.3232234432234
     110.782101    1.3901098901099
     110.860543    1.4295970695971
     110.941272    1.4618315018315
     111.019325     1.528717948718
     111.099618    1.4731135531135
     111.179848    1.5665934065934
     111.273651    1.5827106227106
     111.352432    1.9179487179487
     111.432784    1.6060805860806
     111.512594    1.3610989010989
     111.592189    1.4207326007326
     111.672558     1.447326007326
     111.750367    1.4771428571429
      111.831021   1.5738461538461
       111.91054   1.5899633699634
      111.991283   3.1855677655678
      112.069543   1.5359706959707
112.16414200001    1.7180952380952
      112.244052      2.22336996337
      112.322062   1.2466666666667
      112.401933   1.2837362637363
      112.481942   1.3393406593407
      112.560888   1.3651282051282
      112.640316   1.4304029304029
      112.720233   1.4634432234432
      112.799461   2.8898168498168
      112.879416   1.3909157509157
      112.959901   1.5593406593407
      113.055904   2.0791208791209
      113.136164   1.2990476190476
      113.216149   1.3103296703297
      113.295903   1.3796336996337
      113.375023   1.4247619047619
      113.454989   1.4723076923077
      113.534862   1.5230769230769
      113.610994   1.5496703296703
      113.690007   3.1887912087912
      113.770805   1.5335531135531
      113.865902   1.7390476190476
      113.943534   2.2596336996337
      114.023487   1.3715750915751
      114.103263   1.4191208791209
      114.184196   1.4424908424908
      114.260944   1.4682783882784
       114.33707   1.5134065934066
       114.41704   1.5827106227106
      114.512076   1.5528937728938
      114.590563   1.4739194139194
      114.670727   1.6278388278388
      114.750465   1.9292307692308
       114.82952   1.6890842490842
      114.909404   1.2071794871795
      114.989337   1.2627838827839
       115.06882   1.2934065934066
      115.147661    1.372380952381
      115.227242    1.389304029304
      115.322617   2.5908424908425
      115.400353   1.4553846153846
      115.479498   1.5867399267399
      115.559623   2.0847619047619
      115.637704   1.3377289377289
      115.716689   1.3232234432234
      115.796507   1.3764102564103
115.87439200001     1.481978021978
       115.96983   1.5279120879121
      116.049441   1.5827106227106
      116.129236   1.4618315018315
      116.209146   1.5351648351648
       116.28827   1.5657875457876
      116.367998   1.9324542124542
      116.445923   1.5254945054945
      116.525178   1.3522344322344
      116.604957   1.3449816849817
      116.683936   1.3925274725275
      116.776182   1.4618315018315
       116.85636   1.4795604395604
      116.936189   1.4586080586081
      117.014765   3.2137728937729
      117.094501   1.4860073260073
      117.173519   1.6761904761905
      117.251321    2.205641025641
      117.348052   1.3345054945055
      117.427868   1.3530402930403
       117.50509   1.4021978021978
      117.584691   1.4457142857143
      117.663013   1.5480586080586
      117.742634   1.5142124542124
      117.822578   1.4731135531135
      117.904334   1.5714285714286
      117.983442    1.823663003663
       118.06361   1.7954578754579
      118.142059   1.3248351648352
      118.235475   1.3578754578755
      118.311726   1.3796336996337
      118.391868   1.4215384615385
      118.472836   1.4739194139194
      118.552837   1.4948717948718
      118.642778   3.1879853479854
       118.71382    1.505347985348
       118.79277   1.6971428571429
      118.872715   2.1210256410256
      118.952923   1.2652014652015
      119.033699   1.3135531135531
      119.112697   1.3538461538461
      119.202456   1.4110622710623
      119.282231    1.481978021978
        119.3623   1.5794871794872
      119.443178   1.5536996336996
      119.523781   1.4892307692308
      119.605518   1.5609523809524
      119.688588   1.8430036630037
      119.769959   1.7479120879121
      119.850192   1.3796336996337
      119.930082   1.4368498168498
      120.010311   1.4368498168498
      120.089873   1.4739194139194
      120.169305   1.5279120879121
      120.249679   1.5931868131868
      120.332691   1.5504761904762
      120.412768    1.476336996337
      120.492202   1.5561172161172
       120.57235   1.8341391941392
      120.651328   1.7632234432234
      120.746181   1.3224175824176
      120.824361   1.3667399267399
      120.904178   1.3530402930403
      120.982913    1.394945054945
      121.061404    1.528717948718
      121.143246   1.5134065934066
      121.221965   1.5947985347985
      121.301405   1.5190476190476
      121.395158   1.7745054945055
      121.474193   1.9115018315018
      121.554956   1.2982417582418
       121.63603   1.3739926739927
      121.713883   1.4167032967033
      121.792555   1.4441025641026
      121.871212   1.5254945054945
      121.949704   1.5440293040293
      122.029025    1.887326007326
      122.109427   1.5150183150183
      122.189996   1.5956043956044
       122.27247   1.9928937728938
      122.352585   1.3941391941392
122.44112000001    1.3377289377289
      122.522138   1.3643223443223
      122.602682   1.4110622710623
      122.692099   1.4441025641026
      122.764547   1.4827838827839
      122.843873   1.4795604395604
      122.923273   3.1952380952381
      123.003192   1.4860073260073
      123.082982   1.6423443223443
      123.163473   2.1323076923077
      123.243831   1.3320879120879
      123.323494   1.3683516483517
      123.414547    1.412673992674
      123.495815   1.4521611721612
      123.574007   1.5085714285714
      123.655435   1.6060805860806
      123.729445   1.5682051282051
      123.819312   1.6592673992674
      123.898727    1.614945054945
      123.977877   1.8365567765568
      124.059203   2.0315750915751
      124.138653   1.3361172161172
       124.21898   1.3739926739927
124.30464200001    1.3989743589744
     124.378544    1.4021978021978
     124.471644    1.4505494505495
     124.551855    1.4513553113553
     124.629585    3.1879853479854
     124.709947    1.4860073260073
     124.788039    1.6028571428571
     124.868568    2.0517216117216
     124.948085    1.2643956043956
     125.024439    1.2901831501831
     125.104953    1.3538461538461
     125.200544     1.407032967033
     125.280586    1.4400732600733
     125.356772     1.580293040293
     125.437564     1.528717948718
     125.517236    2.1266666666667
     125.597122    1.5391941391941
     125.676394    1.7285714285714
     125.756392    2.1323076923077
     125.838268    1.3304761904762
      125.91652    1.4215384615385
     126.009545    1.4561904761905
     126.088564     1.481978021978
     126.168389    1.5158241758242
     126.246593     1.614945054945
     126.321865    1.5545054945055
     126.401964    1.6052747252747
     126.482883    1.5488644688645
     126.562729    1.7793406593407
     126.642707    2.0001465201465
     126.741657     1.314358974359
     126.811091    1.3627106227106
     126.890968    1.3369230769231
     126.970994    1.3715750915751
      127.05106    1.4424908424908
     127.131204    1.4392673992674
     127.211502    2.7052747252747
     127.291703    1.4795604395604
     127.371457    1.6778021978022
     127.452446    2.1153846153846
     127.542532    1.2829304029304
      127.62259    1.3417582417582
     127.704313    1.4038095238095
      127.77848    1.4521611721612
     127.858367    1.5279120879121
     127.938227    1.6342857142857
     128.028323    1.5956043956044
     128.109111    1.4860073260073
     128.189675    1.5762637362637
     128.273677    1.8309157509158
       128.3523    1.8099633699634
         128.43    1.3103296703297
     128.509918    1.3715750915751
     128.589652    1.4046153846154
     128.669282     1.447326007326
     128.748833    1.4900366300366
      128.828984   1.5907692307692
      128.923959   1.4989010989011
      129.003926   1.4134798534799
      129.084746   1.5311355311355
      129.165137   1.8309157509158
      129.241258    1.730989010989
      129.320254               1.32
      129.399914   1.3812454212454
      129.492199   1.4030036630037
      129.572122   1.4569963369963
      129.652766   1.5682051282051
      129.733064   1.5182417582418
      129.810458   1.5520879120879
      129.889287   1.5714285714286
129.96926700001    1.8019047619048
      130.048633   1.9880586080586
      130.129246   1.3159706959707
      130.208494   1.3675457875458
      130.288134   1.4110622710623
      130.368438   1.4255677655678
      130.461961   1.4594139194139
      130.539829   1.5424175824176
      130.619402   1.5432234432234
      130.700676    1.505347985348
      130.777428   1.5480586080586
      130.855737   1.8188278388278
      130.934791   1.6842490842491
      131.026465   1.2845421245421
      131.105225    1.349010989011
      131.185863   1.4175091575092
      131.264728   1.4634432234432
      131.344279   1.5254945054945
       131.42404   1.5641758241758
      131.503883   1.5222710622711
      131.583715   1.5738461538461
      131.677748   1.6213919413919
      131.756821   1.9969230769231
      131.834614   1.5649816849817
      131.915175    1.378021978022
       131.99393   1.4312087912088
132.07384800001    1.4666666666667
      132.153594   1.4787545787546
      132.234206   1.5150183150183
      132.311893   1.4336263736264
      132.391676   1.4698901098901
      132.472905   1.5238827838828
      132.562665   1.8969963369963
      132.643751   1.4545787545788
      132.723794   1.2635897435897
      132.801489   1.3183882783883
      132.881968    1.308717948718
      132.961897   1.3610989010989
      133.040731   1.4231501831502
      133.121126   1.4618315018315
      133.200918   2.7786080586081
      133.290884    1.476336996337
      133.371521   1.6230036630037
      133.452573   2.1218315018315
      133.532558   1.3868864468864
      133.612442   1.3731868131868
      133.692586   1.4449084249084
      133.774513   1.4674725274725
      133.858096   1.5391941391941
      133.937983   1.6375091575092
      134.018909   1.6044688644689
      134.098591   1.4457142857143
      134.178727   1.5851282051282
      134.257959   1.8841025641026
       134.34504    1.661684981685
     134.424846    1.2523076923077
      134.50399    1.3079120879121
     134.584416    1.3498168498168
      134.66614     1.383663003663
     134.743281    1.4634432234432
     134.823403     1.470695970696
     134.902261    3.2024908424908
     134.983149    1.4279853479853
     135.077213     1.603663003663
     135.158394    2.1395604395604
     135.237669    1.2950183150183
      135.31674    1.3272527472527
     135.394776     1.389304029304
     135.474726    1.4312087912088
     135.550941    1.4860073260073
     135.643465    1.5939926739927
      135.721716   1.5327472527473
      135.800703   1.7221245421245
      135.877421   1.5843223443223
      135.956082   1.8075457875458
      136.035951   2.1548717948718
      136.116416    1.360293040293
      136.210368    1.407032967033
      136.281987   1.4489377289377
      136.363247   1.4457142857143
      136.443145   1.4868131868132
      136.523988   1.4827838827839
      136.603953   3.1767032967033
      136.683215   1.4521611721612
      136.765011   1.6342857142857
      136.857505   2.1500366300366
       136.92888   1.2531135531135
      137.007977   1.2756776556777
      137.087938   1.3216117216117
      137.177229   1.3699633699634
      137.257758   1.4263736263736
      137.338327   1.4666666666667
      137.418227    2.252380952381
      137.499327   1.5077655677656
      137.578961   1.6060805860806
       137.65803   2.0533333333333
      137.738813   1.3514285714286
      137.822554   1.3361172161172
       137.89877   1.4287912087912
137.97873400001    1.4908424908425
      138.068038   1.5448351648352
      138.148192   1.5641758241758
      138.227312   1.5673992673993
      138.311611   3.1976556776557
      138.391333   1.5496703296703
      138.472187   1.7261538461538
      138.552119   2.2153113553114
      138.632785   1.2869597069597
      138.713243   1.3320879120879
      138.792343   1.3538461538461
138.87509800001    1.3320879120879
      138.956416   1.3610989010989
       139.03633   1.4698901098901
      139.116978   1.4513553113553
      139.197447   1.4690842490842
       139.27576   1.5416117216117
      139.355383   1.8647619047619
      139.435355    1.609304029304
      139.525902   1.3119413919414
      139.605871   1.3691575091575
      139.686059   1.4505494505495
      139.767349   1.4634432234432
      139.846636   1.5021245421245
      139.930718   1.6052747252747
140.011069   1.5915750915751
140.090932   3.1936263736264
140.171469   1.5593406593407
140.251347   1.7164835164835
140.334873   2.1790476190476
140.414931   1.3183882783883
 140.49451   1.3554578754579
140.573842   1.3852747252747
140.653509   1.4038095238095
 140.73366   1.4731135531135
140.814186   1.5303296703297
140.893402    1.499706959707
140.989535   1.6834432234432
141.069014   1.5238827838828
141.147216   1.5956043956044
141.226638   2.0186813186813
141.307343   1.4521611721612

141.386413   1.3361172161172
141.467663   1.3683516483517
141.544196   1.3804395604396
141.622876   1.4215384615385
 141.70302      1.51663003663
141.799986   1.4989010989011
141.878001   1.4441025641026
141.957155   1.6020512820513
142.037104    1.876043956044
142.115795   1.7374358974359
 142.19395   1.3312820512821
142.271248    1.349010989011
142.365931   1.3804395604396
142.447046   1.4223443223443
142.526525   1.4900366300366
 142.60355   1.4835897435897
142.682522   3.1912087912088
 142.76224   1.4916483516484
142.844072   1.6181684981685
 142.92301   2.0468864468864
143.002587   1.2829304029304
143.081408    1.290989010989
143.174522   1.3747985347985
143.255217   1.4134798534799
143.334292   1.4545787545788
143.413029   1.5101831501831
 143.49113   1.5182417582418
143.571819   2.5940659340659
143.651565    1.528717948718
143.732487   1.7116483516484
143.811028   2.1532600732601
143.890537   1.3707692307692
143.969871   1.4215384615385
144.065269   1.4481318681319
144.144886   1.4980952380952
144.225354   1.4989010989011
144.305795   1.5698168498169
144.384222   1.5367765567766
144.462824   1.4811721611722
 144.54087   1.5536996336996
144.618658   1.8196336996337
144.713721   1.8276923076923
144.791052   1.3409523809524
144.869852   1.3578754578755
144.948852   1.3328937728938
145.027485   1.3667399267399
 145.10762    1.476336996337
 145.18844   1.4771428571429
145.268221    1.378021978022
145.347535   1.5545054945055
145.427496   1.8510622710623
145.521955   1.6576556776557
145.602379   1.3312820512821
145.681636   1.3796336996337
145.760937   1.4118681318681
145.839461   1.4731135531135
145.920451   1.6141391941392
146.000366   1.5520879120879
146.081291   2.4828571428571
146.160325   1.5254945054945
146.238656   1.7052014652015
146.332823    2.107326007326
146.412218   1.3264468864469
 146.49192   1.3852747252747
 146.57082   1.4054212454213
146.652122   1.4287912087912
146.730125               1.54
 146.80936   1.5126007326007
146.888375   1.7205128205128
146.967654   1.4650549450549

147.061481    1.701978021978
147.140323   2.0420512820513
147.218406   1.2748717948718
 147.29835   1.3353113553114
147.377826   1.3812454212454
147.457644   1.4223443223443
 147.53709      1.51663003663
147.616849   1.4747252747253
147.695519   1.4199267399267
147.791315   1.5271062271062
147.870094   1.8591208791209
147.950291   1.7511355311355
148.030497    1.372380952381
148.110377   1.4005860805861
148.188346    1.412673992674
148.276165   1.4465201465202
148.342182   1.5504761904762
148.431727   1.5230769230769
148.512344   1.4158974358974
148.592521   1.5238827838828
148.674812   1.7511355311355
148.752406   1.8051282051282
148.832636      1.29663003663
148.912578   1.3175824175824
148.992122   1.3578754578755
 149.07073   1.4384615384615
149.160644   1.5778754578755
149.240481   1.5440293040293
149.321389   1.6020512820513
 149.40137   1.5786813186813
149.482412   1.8663736263736
 149.56218   2.0130402930403
149.641755   1.2926007326007
149.723227   1.3578754578755
149.803691   1.3578754578755
149.883096   1.4465201465202
149.964244      1.56336996337
 150.04776   1.4852014652015
150.127774   1.5947985347985
150.208784   1.6391208791209
150.291504   1.9646886446886
150.368713   1.5714285714286
150.447855   1.3111355311355
150.527694   1.3473992673993
150.623025   1.3925274725275
150.703533   1.4287912087912
150.783358   1.5698168498169
150.864983   1.4868131868132
150.943336   1.3361172161172
151.023304   1.5021245421245
151.103438   1.7277655677656
      151.183217    1.847032967033
      151.262941   1.3578754578755
       151.34279    1.308717948718
      151.423019   1.4215384615385
      151.502183   1.4690842490842
      151.582302    1.394945054945
      151.662559    1.528717948718
      151.756874   1.4231501831502
      151.836867   1.3965567765568
       151.91683   1.7245421245421
       151.99781   1.9493772893773
        152.0774   1.9542124542124
      152.157456   1.3868864468864
      152.235064   1.4110622710623
      152.314977   1.3506227106227
      152.393686   1.2813186813187
      152.473803   1.5311355311355
      152.554709   1.5786813186813
      152.649739   1.4940659340659
      152.728102   1.5883516483516
      152.807315   1.6173626373626
      152.888241      1.95663003663
      152.967168   1.5448351648352
      153.048227   1.3240293040293
      153.128185   1.3627106227106
      153.208043   1.3482051282051
      153.287831   1.4118681318681
      153.367397   1.4086446886447
      153.447721   3.1976556776557
153.52773400001    1.4731135531135
      153.605815   1.6230036630037
      153.701254   2.1460073260073
       153.78166   1.3063003663004
       153.86059   1.3425641025641
      153.940311    1.447326007326
      154.020615   1.4634432234432
      154.100127   1.5150183150183
      154.179097   1.5021245421245
      154.258992   3.2331135531135
      154.339122   1.5246886446886
      154.416397   1.6479853479853
      154.510593   2.1097435897436
      154.589321    1.354652014652
      154.668428   1.3385347985348
      154.747106   1.3772161172161
      154.825217   1.4287912087912
      154.902657   1.4698901098901
      154.994396    1.470695970696
       155.07461   2.2588278388278
      155.155363   1.5045421245421
      155.235981   1.7132600732601
      155.314679   2.0920146520147
      155.393916   1.3530402930403
      155.471302   1.3973626373626
      155.551389   1.4150915750916
      155.630187   1.4569963369963
      155.723312   1.5827106227106
      155.803585   1.5625641025641
      155.882904   1.4956776556777
       155.96328   1.6794139194139
      156.040876    1.921978021978
      156.121755   1.8252747252747
      156.201104   1.4142857142857
      156.281499   1.4086446886447
      156.359876   1.3868864468864
      156.439122   1.4586080586081
      156.533778   1.4191208791209
      156.614755   1.2998534798535
      156.692629   1.4843956043956
      156.770985   1.7809523809524
      156.851113   1.5238827838828
      156.931695   1.2208791208791
      157.010492   1.3063003663004
      157.087931    1.360293040293
      157.183413    1.499706959707
      157.260012   1.4892307692308
      157.338491   1.3796336996337
      157.418894   1.5472527472527
       157.49996    1.834945054945
       157.57979    1.789010989011
      157.656651   1.3683516483517
      157.735726   1.4102564102564
      157.816367   1.4013919413919
      157.911434   1.5440293040293
      157.989795   1.5303296703297
      158.070086   1.4400732600733
      158.148734   1.5496703296703
      158.228173   1.8333333333333
      158.301365   1.6117216117216
158.38165300001     1.290989010989
      158.462962   1.3538461538461
      158.552909   1.3997802197802
      158.633417   1.4860073260073
      158.714543   1.4489377289377
      158.793795   1.4021978021978
      158.873677    1.510989010989
      158.954654   1.7777289377289
       159.03434   1.5472527472527
      159.113335   1.3006593406593
       159.19991   1.3683516483517
      159.280377   1.4005860805861
       159.36051   1.5335531135531
      159.440877   1.5069597069597
      159.521959    1.505347985348
      159.601402   1.5649816849817
      159.681928   1.8019047619048
       159.76336   1.8188278388278
      159.842074   1.3731868131868
      159.922869   1.4513553113553
      160.002381   1.4545787545788
      160.082272   1.5504761904762
      160.166803   1.4924542124542
      160.247078   1.5545054945055
      160.331405   1.5214652014652
      160.412669   1.7632234432234
      160.493504   1.7583882783883
      160.572724   1.3288644688645
      160.652932    1.383663003663
      160.733666   1.4094505494506
      160.819361   1.5569230769231
       160.90042   1.4634432234432
      160.981079   1.5432234432234
       161.05988   1.5021245421245
      161.139654   1.7567765567766
      161.217046   1.8309157509158
      161.297207   1.3264468864469
      161.388199   1.3812454212454
      161.468415    1.412673992674
      161.549045   1.5279120879121
      161.629059   1.4682783882784
      161.710173    1.441684981685
      161.789512   1.5553113553114
161.86922300001    1.9002197802198
      161.950394   1.5722344322344
       162.03025   1.3594871794872
       162.10995    1.389304029304
      162.193907   1.4215384615385
      162.279449   1.5134065934066
      162.359539   1.4400732600733
      162.439516    1.505347985348
     162.519031    1.5528937728938
     162.598841    1.8728205128205
     162.675996    1.4715018315018
      162.75467       1.29663003663
     162.850061    1.3473992673993
     162.926064     1.360293040293
     163.005491    1.4537728937729
      163.08636     1.418315018315
     163.167228    1.4094505494506
     163.246659    1.5391941391941
     163.325664    1.8462271062271
     163.406339    1.5319413919414
     163.486548    1.3216117216117
     163.566318    1.4030036630037
     163.646513    1.4441025641026
     163.740562    1.4803663003663
     163.819844    1.5174358974359
     163.900426    3.1976556776557
     163.981225    1.5762637362637
     164.058343    1.7156776556777
      164.138779   2.1443956043956
      164.218342   1.3530402930403
       164.30163   1.3796336996337
      164.381544   1.4078388278388
      164.461801   1.4545787545788
      164.542201   1.5142124542124
      164.622517    1.510989010989
      164.702837    3.172673992674
      164.783719   1.4956776556777
      164.864043   1.6068864468865
      164.943714   2.0267399267399
      165.023843   1.2539194139194
      165.103811   1.2780952380952
      165.188964    1.360293040293
      165.274145   1.3788278388278
      165.354474   1.4263736263736
      165.434041    1.534358974359
      165.514904   1.5230769230769
      165.594545   1.5182417582418
      165.674231   1.5778754578755
      165.755621   1.9147252747253
      165.836147   1.6028571428571
      165.916829   1.3796336996337
      165.996736   1.4223443223443
      166.076439   1.4481318681319
      166.156095   1.4650549450549
      166.242354   1.5263003663004
      166.326462   1.6197802197802
      166.404559   1.5859340659341
      166.484055   1.4956776556777
      166.564338    1.592380952381
166.64440300001    1.8961904761905
      166.723708   1.7414652014652
      166.802967   1.3022710622711
      166.898673   1.3127472527472
      166.975341   1.3240293040293
      167.055408   1.3868864468864
      167.134258   1.4489377289377
      167.213961    1.470695970696
      167.294001   2.2620512820513
      167.371738   1.4924542124542
      167.451283   1.6173626373626
      167.547023   2.1202197802198
      167.626105   1.3304761904762
      167.703272   1.2950183150183
      167.781606   1.3699633699634
      167.860641    1.418315018315
167.94050600001    1.5198534798535
      168.021911    1.545641025641
      168.101205   1.5488644688645
168.179621   1.4868131868132
168.275063   1.5440293040293
168.355004   1.5682051282051
168.434858      1.95663003663
168.513709   1.4795604395604
168.590193   1.2869597069597
168.670509   1.3328937728938
168.751172   1.3699633699634
168.828736   1.4304029304029
168.907542   1.4191208791209
 169.00364   1.4731135531135
169.083725   1.4811721611722
169.164795   3.1992673992674
169.244335   1.5085714285714
169.323375   1.6866666666667
169.402133   2.2064468864469
 169.48176   1.3191941391941
 169.56098   1.3739926739927
169.640615   1.4328205128205
169.719813   1.4384615384615
169.798557   1.4892307692308
169.893003   1.5988278388278
169.972754   1.6020512820513
170.053347   3.2008791208791
170.133048   1.6262271062271
  170.2151               1.76
170.291176   2.2878388278388
170.370606   1.2716483516484
170.451288   1.2893772893773
170.531634   1.3280586080586
170.612484   1.3643223443223
170.690573   1.4078388278388
170.772602   1.4376556776557
170.858055   1.6052747252747
170.937866   1.4078388278388
171.018317   1.5319413919414
171.098298   1.9735531135531
171.177751   1.3506227106227
   171.263   1.3022710622711
171.339753   1.3498168498168
171.419834   1.3997802197802
171.511036   1.4779487179487
171.581254   1.5464468864469
171.661013   1.5480586080586
171.743247   2.9615384615385
171.822583   1.5649816849817
171.913221   1.8196336996337
171.992907   2.3055677655678
172.072147   1.4086446886447
172.152242   1.4086446886447
172.232851   1.4295970695971
172.310931   1.4602197802198
172.390791   1.5391941391941
172.485238   1.5150183150183
172.566071   1.3957509157509
172.647181   1.4884249084249
172.725979   1.8156043956044
172.805527   1.6391208791209
172.885386   1.2200732600733
172.966625   1.2579487179487
173.046255               1.32
173.124204   1.3707692307692
 173.20211   1.4304029304029
173.283201   2.8495238095238
173.376554   1.4392673992674
173.457274   1.5907692307692
173.534688   2.1218315018315
173.611977   1.3030769230769
173.691656   1.3409523809524
     173.770857    1.4046153846154
     173.850513    1.4223443223443
     173.930195    1.5609523809524
     174.009584    1.5311355311355
     174.105437    1.8083516483516
     174.185402    1.5448351648352
     174.271738    1.7519413919414
     174.333565    2.0396336996337
     174.414287    1.2926007326007
     174.495843    1.3304761904762
     174.585481    1.4030036630037
      174.66452    1.4537728937729
     174.746832    1.5794871794872
     174.826435    1.5545054945055
     174.906083    1.5335531135531
     174.986155    1.4803663003663
      175.06639    1.7608058608059
     175.151558    1.8744322344322
     175.232016    1.2805128205128
     175.305355     1.354652014652
     175.393446    1.3796336996337

      175.474657   1.4312087912088
      175.554503   1.4626373626374
      175.634561   3.1920146520147
      175.716513   1.4666666666667
      175.795564   1.6294505494506
      175.875093   2.2040293040293
      175.954676   1.3627106227106
      176.034787   1.3699633699634
      176.114826   1.4167032967033
      176.195988   1.4513553113553
      176.287952   1.4602197802198
      176.366611   1.5021245421245
      176.446993   1.7446886446886
      176.526305   1.4860073260073
      176.605314   1.6101098901099
      176.685233   2.0452747252747
      176.764361   1.3860805860806
       176.85813   1.3473992673993
      176.938016   1.3232234432234
       177.01757   1.3901098901099
      177.097364   1.4731135531135
      177.176497    1.592380952381
      177.253823   1.5673992673993
      177.332748   1.5585347985348
      177.411005   1.5931868131868
      177.492015   1.8164102564103
      177.587917   1.8849084249084
      177.666945   1.2547252747253
      177.746806   1.3135531135531
      177.824759   1.3498168498168
      177.904954   1.4231501831502
      177.983185   1.5408058608059
      178.062437   1.5158241758242
      178.141889   1.4441025641026
      178.223298   1.5311355311355
      178.302244   1.7471062271062
      178.383276    1.985641025641
      178.465405      1.29663003663
      178.544242   1.3377289377289
      178.624558    1.394945054945
      178.715441   1.4287912087912
178.79572300001    1.4666666666667
       178.87555   1.5021245421245
       178.95598   1.4876190476191
      179.034625   3.1976556776557
      179.114781    1.499706959707
      179.195003    1.672967032967
      179.275275   2.1975824175824
179.355844   1.3328937728938
179.441061   1.3844688644689
179.520602   1.4384615384615
179.600683   1.4545787545788
 179.68048   1.4892307692308
179.763307   1.5375824175824
179.841581   1.5383882783883
 179.92138   3.2242490842491
180.001639   1.5383882783883
180.081946   1.6753846153846
180.162352   2.2080586080586
 180.25225   1.3119413919414
180.326146   1.2861538461538
180.419954   1.3361172161172
180.498915    1.378021978022
180.575759   1.4545787545788
180.654977   1.4932600732601
 180.73442   1.5190476190476
180.813777   1.5770695970696
180.891342   1.4553846153846
180.985882   1.6455677655678
 181.06264   2.0758974358974

181.140749   1.2700366300366
181.220467   1.2990476190476
181.299638   1.3514285714286
181.379077   1.4223443223443
181.458765   1.5101831501831
181.553008   1.6181684981685
181.631138   1.5778754578755
181.710515   1.3941391941392
181.788396   1.5843223443223
181.868927   1.7978754578755
181.948212    2.072673992674
182.027228   1.3997802197802
182.106946   1.4158974358974
182.200999   1.4021978021978
  182.2721   1.4376556776557
182.351822   1.4505494505495
182.430293   1.5005128205128
182.511192   1.5182417582418
182.591337   1.8204395604396
182.681263    1.545641025641
 182.76313   1.7696703296703
182.842627   2.0895970695971
182.922334   1.3643223443223
183.002587   1.3473992673993
 183.08268   1.4505494505495
183.162715   1.3530402930403
183.242723   1.3764102564103
183.321876    1.412673992674
183.402074    3.212967032967
183.485986   1.4747252747253
183.566412   1.6181684981685
 183.64733   2.0605860805861
183.727555   1.3167765567766
183.807511   1.3901098901099
183.888126   1.4328205128205
 183.96788   1.5126007326007
184.057959   1.5311355311355
184.137529   1.5770695970696
184.217516   3.0759706959707
184.303272   1.5682051282051
184.381334   1.6761904761905
184.459024    2.054945054945
184.536155   1.2990476190476
 184.63003   1.2845421245421
184.709651   1.2772893772894
184.788277   1.3449816849817
184.867804   1.3852747252747
      184.948448   1.3635164835165
      185.028093   2.5916483516484
      185.108374   1.4376556776557
      185.188807   1.5778754578755
      185.268303   2.0122344322344
      185.349441    1.354652014652
      185.427035   1.3562637362637
      185.521639   1.3933333333333
      185.598182    1.418315018315
      185.674331   1.4827838827839
       185.75442   1.5383882783883
      185.832586   3.1992673992674
185.92450600001    1.6052747252747
      186.000678   1.7898168498169
      186.077351   2.2338461538461
      186.155326   1.3336996336996
       186.24963   1.3449816849817
      186.331007   1.3514285714286
      186.408456   1.4215384615385
      186.488217   1.4021978021978
       186.56802   3.1928205128205
      186.648332   1.4634432234432
       186.72747   1.6278388278388
      186.808506   2.1282783882784
      186.887796   1.2490842490842
       186.96801   1.2603663003663
      187.047357   1.3482051282051
      187.125953   1.3997802197802
      187.221172    1.470695970696
      187.301171   1.4594139194139
      187.381107   1.4956776556777
       187.46128   1.5794871794872
      187.541404   1.9751648351648
      187.621458   1.4602197802198
      187.702255   1.3675457875458
      187.782026    1.389304029304
      187.861903    1.436043956044
       187.94167   1.6391208791209
      188.022239    1.592380952381
      188.100578   1.6939194139194
      188.181319   1.6600732600733
      188.259464   1.8857142857143
      188.341991      2.00336996337
      188.421423   1.3224175824176
      188.506514   1.3506227106227
      188.586202   1.3635164835165
      188.666129   1.4142857142857
      188.747109   1.3933333333333
       188.82697    2.605347985348
      188.906691   1.4038095238095
      188.997526   1.5851282051282
      189.076989   1.9993406593407
      189.156861   1.2547252747253
      189.237296   1.3377289377289
      189.317482   1.3876923076923
      189.397304   1.4304029304029
      189.488115   1.5198534798535
      189.556373   1.4312087912088
      189.635905   1.5303296703297
      189.717128   1.5794871794872
      189.796834   1.9211721611722
      189.887633   1.7052014652015
      189.967506    1.407032967033
      190.047619   1.4158974358974
      190.127955   1.4199267399267
      190.207845   1.4674725274725
      190.288493   1.5069597069597
      190.366387   1.4956776556777
      190.447276   1.6221978021978
      190.527061   1.6189743589744
       190.62121   2.0049816849817
      190.701525   1.4497435897436
      190.781685   1.3465934065934
      190.860716   1.3425641025641
      190.938906   1.3248351648352
      191.017155   1.4497435897436
      191.096643   1.3989743589744
      191.176512   1.7857875457876
      191.256162   1.4618315018315
        191.3364   1.7052014652015
      191.432965   2.0227106227106
191.51102800001     1.308717948718
      191.589651    1.360293040293
      191.667739   1.3925274725275
      191.747932   1.4263736263736
      191.825253   1.4989010989011
      191.904814   1.5536996336996
      191.984584   3.1992673992674
      192.075543   1.5819047619048
      192.155746   1.7390476190476
      192.235783   2.1879120879121
      192.314543   1.3320879120879
      192.394991   1.3578754578755
      192.475097   1.4021978021978
      192.554538   1.4207326007326
       192.63296   1.4666666666667
      192.726286   1.5037362637363
      192.806558   1.4578021978022
      192.886846      1.51663003663
      192.966411   1.5601465201465
      193.047095   1.9429304029304
       193.12563   1.4279853479853
       193.20485   1.3312820512821
      193.282645   1.4013919413919
      193.362837   1.4368498168498
      193.456623   1.4932600732601
      193.536081   1.5295238095238
      193.616168   1.5391941391941
      193.697127   2.0767032967033
      193.775497   1.5206593406593
      193.855507   1.6109157509157
      193.934694   2.1153846153846
      194.013342   1.4191208791209
      194.092341   1.3635164835165
      194.171594   1.3868864468864
      194.265091   1.3933333333333
      194.345376   1.4376556776557
      194.425234   1.5448351648352
      194.505899   1.5061538461538
      194.585815   1.3828571428571
      194.665597   1.5190476190476
      194.745768   1.8172161172161
      194.823841   1.7068131868132
194.90274500001    1.2627838827839
194.98322300001     1.308717948718
      195.062102   1.3619047619048
      195.156537   1.4263736263736
      195.236782   1.4586080586081
      195.317474   1.5561172161172
      195.396876   1.5391941391941
      195.474045   1.4441025641026
      195.554147   1.5859340659341
      195.632869   1.8478388278388
195.71197300001    1.8518681318681
      195.790662   1.3280586080586
      195.870622   1.3933333333333
      195.950176   1.4553846153846
       196.04561   1.5190476190476
      196.126181   1.5448351648352
      196.205707   1.6367032967033
      196.282316   1.5641758241758
      196.362538   1.6157509157509
       196.44246                1.54
      196.523004   1.7736996336996
      196.599557   1.9904761904762
      196.680336   1.2998534798535
      196.770573   1.3248351648352
      196.850171   1.3659340659341
      196.930351   1.3498168498168
      197.010125   1.3756043956044
      197.090266   1.4900366300366
      197.169739   1.4972893772894
      197.251863   1.3796336996337
      197.331009   1.5327472527473
      197.410029   1.7954578754579
       197.49005   1.9018315018315
      197.574699   1.3328937728938
      197.656841   1.3627106227106
      197.738434   1.3820512820513
      197.819576   1.4578021978022
      197.899408   1.5375824175824
      197.978344   1.6504029304029
      198.059089   1.5754578754579
      198.138476   1.4932600732601
      198.219589   1.5867399267399
      198.305811   1.8051282051282
      198.386593      2.00336996337
      198.465607   1.3127472527472
      198.547707   1.3675457875458
      198.625867    1.383663003663
198.70590300001    1.3941391941392
      198.784484   1.4650549450549
       198.88153   1.5657875457876
      198.961743   1.4481318681319
      199.041295   1.3997802197802
      199.120569   1.5246886446886
      199.199169   1.7608058608059
      199.279898   2.0025641025641
      199.357066   1.3353113553114
       199.43674   1.3876923076923
      199.516597   1.4150915750916
      199.596813   1.4674725274725
      199.676888    1.510989010989
      199.771527   1.6471794871795
      199.851864   1.5810989010989
      199.933304    1.569010989011
      200.011173    1.643956043956
      200.091224   1.9090842490842
      200.171075   1.9308424908425
      200.250565   1.3643223443223
       200.33044   1.3997802197802
      200.408496   1.3909157509157
      200.487911   1.4030036630037
      200.567879   1.4682783882784
      200.649247   1.3868864468864
        200.7291   1.4545787545788
      200.824803   1.5408058608059
      200.905965   1.8631501831502
      200.984728   1.3739926739927
      201.064087   1.2313553113553
      201.144093   1.3280586080586
      201.224908   1.3828571428571
      201.304747   1.4352380952381
      201.383431   1.5641758241758
      201.462341   1.5311355311355
      201.541123   1.4320146520146
      201.619056   1.5682051282051
      201.713141   1.8655677655678
      201.794065   1.7471062271062
      201.873463   1.3473992673993
      201.95158    1.4295970695971
     202.031202    1.4489377289377
     202.110329    1.4916483516484
     202.190056    1.5198534798535
     202.271799    1.5367765567766
     202.351726    3.2041025641026
     202.432263    1.5448351648352
     202.513678    1.6971428571429
     202.592565    2.2104761904762
     202.675667    1.3183882783883
     202.757161    1.3079120879121
      202.83727    1.3473992673993
     202.917535    1.3288644688645
     202.998248    1.3997802197802
     203.077179    1.4102564102564
     203.157541    1.4030036630037
     203.246488    1.4972893772894
     203.328025    1.7648351648352
     203.407632    2.0501098901099
     203.488476    1.2990476190476
     203.567849    1.3570695970696
     203.655461    1.4118681318681
     203.725618    1.4626373626374
     203.806775    1.5254945054945
      203.887009   1.5190476190476
         203.976   3.1976556776557
204.05565300001    1.5408058608059
      204.135569               1.76
      204.217508   2.2854212454212
      204.298931   1.2837362637363
      204.376134   1.2643956043956
      204.454714               1.32
      204.535127   1.4046153846154
      204.630316    1.470695970696
      204.709104   1.4666666666667
204.78622300001    1.7479120879121
      204.865339   1.4972893772894
      204.945174   1.5714285714286
      205.024412   2.0364102564103
      205.104139   1.3667399267399
      205.184594   1.3111355311355
      205.262553   1.3570695970696
      205.358691   1.3965567765568
      205.437864   1.4561904761905
      205.516813   1.5875457875458
      205.596728   1.5367765567766
      205.675977   1.4102564102564
      205.753972   1.5585347985348
      205.831983   1.8019047619048
      205.912501   1.8889377289377
      206.006629   1.3788278388278
      206.086732   1.4134798534799
        206.1666    1.412673992674
      206.246512   1.4328205128205
      206.321505    1.452967032967
      206.401534   1.4698901098901
      206.482069   2.0082051282051
      206.563212    1.528717948718
      206.642851   1.6447619047619
      206.721093   2.0396336996337
      206.800791   1.4094505494506
      206.890695   1.3457875457876
      206.970215   1.3296703296703
      207.050214   1.3667399267399
207.13022300001    1.4521611721612
      207.211503   1.5214652014652
      207.291052   1.5263003663004
207.37066400001    1.6874725274725
      207.451811   1.5416117216117
       207.53216   1.7865934065934
     207.612609    2.0823443223443
     207.705843    1.3482051282051
     207.776622    1.3610989010989
      207.85715    1.4102564102564
     207.937129    1.4892307692308
     208.017303    1.4795604395604
     208.097957    2.5690842490842
     208.177283    1.4578021978022
     208.266815    1.6028571428571
     208.346923    2.0694505494506
     208.426003    1.3095238095238
     208.501729    1.3006593406593
     208.597683    1.3683516483517
     208.678198    1.4086446886447
     208.755792    1.5037362637363
     208.835801    1.4924542124542
     208.915986    1.3030769230769
     208.996684    1.5029304029304
     209.075334    1.7688644688645
     209.155193    1.7857875457876
     209.235404    1.3111355311355
     209.314326     1.378021978022
      209.39501    1.3997802197802
     209.487596    1.4884249084249
       209.56683   1.4868131868132
      209.644572   1.8365567765568
      209.721412   1.5351648351648
      209.800918   1.7189010989011
      209.880001    2.072673992674
       209.95884   1.3683516483517
      210.051431   1.4255677655678
      210.132518   1.4336263736264
      210.212303   1.4594139194139
      210.282471   1.4618315018315
      210.373906   3.1928205128205
      210.455731      1.51663003663
210.53424500001    1.6858608058608
      210.615048   2.1580952380952
      210.694897   1.3320879120879
      210.769805   1.3643223443223
      210.850284    1.407032967033
      210.930732    1.412673992674
      211.020514   1.4513553113553
      211.100139   3.1025641025641
      211.180316   1.4860073260073
      211.259171   1.6576556776557
      211.339443   2.1564835164835
      211.420737   1.3063003663004
      211.500725   1.3385347985348
      211.580262   1.3707692307692
      211.660126    1.412673992674
      211.746864   1.4094505494506
      211.826976   2.6714285714286
      211.908024   1.4956776556777
      211.987209   1.7463003663004
      212.067586   2.0791208791209
      212.147363   1.3336996336996
      212.228098   1.3820512820513
      212.321621   1.4287912087912
      212.400107   1.4843956043956
      212.478614    1.476336996337
      212.557118   2.5118681318681
       212.63773   1.4747252747253
      212.717234   1.7140659340659
      212.797916   2.0581684981685
      212.886508   1.2805128205128
       212.96582   1.3046886446886
      213.046755   1.3498168498168
     213.125203    1.4046153846154
     213.205084     1.418315018315
     213.285869    3.1968498168498
     213.365058    1.4989010989011
     213.445746    1.7092307692308
     213.525069    2.1806593406593
     213.604071    1.4199267399267
     213.683944    1.3570695970696
     213.777796    1.3554578754579
     213.854647    1.4924542124542
     213.931139    1.4876190476191
     214.009835    1.4739194139194
     214.087917    1.5093772893773
     214.182144    1.7825641025641
     214.262652    1.7519413919414
     214.340013    1.2772893772894
     214.420818    1.3385347985348
     214.500552    1.3691575091575
     214.576279    1.4215384615385
     214.654468    1.4449084249084
     214.748373     3.196043956044
     214.826365    1.4989010989011
     214.904056    1.6455677655678
     214.984358    2.0855677655678
     215.064625    1.2789010989011
      215.14227    1.3554578754579

      215.222411   1.3868864468864
      215.303445   1.4739194139194
      215.397067   1.4924542124542
       215.47596   1.5198534798535
      215.556462   1.5029304029304
      215.634912   1.6262271062271
      215.714074   2.0541391941392
      215.792006    1.418315018315
      215.871891   1.3441758241758
       215.95118   1.4537728937729
      216.031212   1.4779487179487
      216.126963   1.5246886446886
      216.203161   1.5214652014652
      216.281507   2.3523076923077
      216.362328   1.5085714285714
      216.442391   1.6592673992674
      216.522582   2.1443956043956
      216.601833   1.3385347985348
      216.681591   1.2942124542125
216.76378900001    1.3232234432234
      216.842971   1.3522344322344
      216.922943   1.3884981684982
      217.002843   1.3296703296703
      217.093305   1.4150915750916
      217.171926   1.5085714285714
      217.251942   1.9235897435897
      217.331875   1.4271794871795
      217.413922   1.3030769230769
      217.493577   1.4005860805861
      217.573452   1.4191208791209
      217.653489   1.4698901098901
      217.735442   1.5279120879121
      217.822675   2.5441025641026
       217.90182   1.5214652014652
       217.98165   1.6955311355311
      218.063523    2.211282051282
       218.14283   1.3772161172161
      218.222701   1.3361172161172
      218.309166   1.3586813186813
      218.389211   1.4046153846154
      218.467311   1.4521611721612
      218.546282   1.4610256410256
      218.625759   3.1976556776557
     218.705231    1.5093772893773
     218.799139    1.6753846153846
     218.877539    2.1951648351648
     218.957716    1.2571428571429
      219.03809    1.3183882783883
     219.118735    1.3449816849817
     219.197904    1.3965567765568
      219.27649    1.4666666666667
     219.355867    1.4731135531135
     219.434521     3.178315018315
     219.514404     1.510989010989
     219.608525    1.7237362637363
     219.688858    2.1693772893773
     219.768251    1.3522344322344
     219.848366    1.3788278388278
     219.929335    1.4441025641026
     220.008153    1.4956776556777
     220.085535    1.6068864468865
     220.165389    1.5254945054945
     220.245456    1.3022710622711
      220.32635    1.5875457875458
     220.405003    1.7728937728938
     220.498386    1.8131868131868
     220.575702    1.3159706959707
     220.654563    1.4191208791209
     220.734079    1.5005128205128
     220.814069    1.4271794871795

      220.892749   1.3103296703297
      220.972483   3.1718681318681
      221.052666   1.3554578754579
      221.147621   1.5069597069597
      221.225425   1.9324542124542
      221.302025   1.3111355311355
       221.38071   1.4054212454213
      221.459243   1.4594139194139
      221.538669   1.4916483516484
      221.618213   1.5536996336996
      221.700634   1.8575091575092
      221.795678   1.5488644688645
      221.874091   1.6504029304029
      221.953727   2.0082051282051
222.03398400001    1.5158241758242
      222.113987   1.5359706959707
      222.192671   1.4634432234432
      222.269939    1.378021978022
      222.348126    1.452967032967
      222.427792   2.9333333333333
      222.523698   1.4553846153846
222.60348400001    1.7108424908425
       222.68369   1.9348717948718
      222.762118   1.2603663003663
      222.841358   1.3054945054945
      222.918855   1.3038827838828
      222.996311   1.4400732600733
       223.07639   1.4304029304029
      223.173815    1.412673992674
      223.252205   1.5569230769231
      223.330771   1.9058608058608
       223.40589    1.436043956044
      223.486284   1.2684249084249
      223.566043   1.2716483516484
      223.647262   1.4312087912088
      223.726901   1.5037362637363
      223.807136   3.1533333333333
      223.886723   1.5835164835165
       223.97952   1.8252747252747
      224.054883   2.1371428571429
       224.13179   1.2684249084249
      224.209533   1.3103296703297
      224.290095    1.383663003663
       224.38602   1.4030036630037
      224.464015    3.167032967033
      224.540642   1.4344322344322
      224.619102   1.5569230769231
      224.697072   2.1468131868132
      224.789279   1.3191941391941
      224.868763   1.3288644688645
      224.948413   1.2917948717949
      225.025693   1.4384615384615
      225.104607   1.4328205128205
       225.18479   1.3264468864469
      225.265337   1.5279120879121
       225.34626    1.876043956044
      225.425441    1.569010989011
       225.50514   1.3038827838828
      225.584862   1.3441758241758
225.68051700001    1.3820512820513
      225.760563   1.4392673992674
      225.838829   1.4723076923077
       225.91493   3.2032967032967
      225.993217   1.5303296703297
      226.073112   1.7148717948718
      226.152938    2.141978021978
       226.24815   1.3425641025641
      226.326034   1.3457875457876
226.40662000001    1.3901098901099
      226.484829   1.4054212454213
      226.563443   1.5134065934066
      226.644336   1.5077655677656
      226.724031   1.5069597069597
      226.802807   1.5069597069597
      226.882876   1.7938461538462
      226.962722   1.7898168498169
      227.042979   1.3216117216117
      227.138139   1.4626373626374
      227.215911   1.4279853479853
      227.293523    1.407032967033
      227.370115   1.4215384615385
      227.448415   2.5674725274725
       227.54365   1.4376556776557
      227.620443   1.6020512820513
      227.700357   2.0646153846154
      227.779588               1.32
      227.856537   1.3345054945055
      227.937047   1.3796336996337
228.01700600001     1.452967032967
      228.095338   1.5254945054945
      228.187321   1.5335531135531
      228.267202   2.1693772893773
      228.345841   1.5254945054945
      228.425624   1.6568498168498
      228.505504   2.1008791208791
       228.58506   1.3925274725275
      228.664329   1.3538461538461
      228.758883   1.4094505494506
      228.837315    1.407032967033
      228.917448   1.4247619047619
      228.996554   1.5029304029304
      229.074348   1.5254945054945
      229.154493   1.5198534798535
      229.233156   1.5827106227106
      229.314599   2.0259340659341
      229.391704   1.4618315018315
      229.472145   1.3046886446886
      229.566958   1.3707692307692
      229.646597   1.3691575091575
      229.724471   1.4312087912088
      229.804474   1.4505494505495
      229.884797   1.5714285714286
      229.962346   1.5061538461538
      230.043093   1.6189743589744
      230.121056   2.0920146520147
      230.214905   1.4344322344322
      230.294497   1.3304761904762
      230.374071   1.3441758241758
      230.454321   1.3788278388278
      230.534223   1.4376556776557
      230.613313    1.510989010989
      230.692407   1.4876190476191
      230.772084   3.1984615384615
      230.851993   1.4980952380952
      230.929802   1.6157509157509
      231.010309   2.1290842490842
      231.091577   1.2587545787546
      231.185793   1.3135531135531
      231.265482   1.3619047619048
      231.343873   1.4150915750916
      231.423567    1.476336996337
      231.503636    1.592380952381
      231.582193    1.551282051282
      231.663213   1.4618315018315
      231.742079   1.5754578754579
      231.821737    1.858315018315
231.90173400001    1.8623443223443
      231.981332   1.3925274725275
      232.078343    1.412673992674
      232.157506   1.4287912087912
      232.238111   1.4537728937729
      232.317026   1.5335531135531
      232.397037   1.5029304029304
      232.477085   3.1976556776557
      232.556212   1.4739194139194
      232.635152   1.6608791208791
      232.714917   2.1540659340659
       232.79146    1.279706959707
      232.887746   1.3175824175824
      232.967034   1.3167765567766
      233.047432   1.3570695970696
       233.12465    1.418315018315
      233.203887   1.4755311355311
      233.284319   1.8897435897436
      233.361514   1.4650549450549
      233.441469   1.6076923076923
      233.536253    2.054945054945
      233.615178   1.3739926739927
      233.695987   1.3417582417582
      233.774327   1.3820512820513
      233.854096   1.4134798534799
      233.932922   1.5432234432234
      234.011552   1.6802197802198
      234.089986   1.6407326007326
      234.167817   1.4892307692308
      234.263489   1.6020512820513
      234.338032   1.8953846153846
      234.416782   1.6955311355311
      234.495776   1.2845421245421
       234.57493    1.349010989011
      234.652645   1.3643223443223
      234.747555   1.4271794871795
234.82952800001    1.4376556776557
       234.90908   3.2057142857143
      234.990201   1.4505494505495
      235.067323   1.6455677655678
      235.142598    2.170989010989
      235.220694   1.2893772893773
      235.301054   1.3248351648352
      235.395714   1.3860805860806
      235.473323   1.4255677655678
      235.552625   1.4569963369963
235.63266400001    1.4658608058608
      235.712364   3.1968498168498
      235.790345   1.4860073260073
      235.869503   1.8220512820513
      235.950152   2.3668131868132
      236.031406   1.4594139194139
      236.125784   1.4771428571429
      236.206332   1.3691575091575
      236.285955   1.3586813186813
      236.362535   1.4304029304029
236.44234800001    1.4505494505495
      236.521835   3.1984615384615
      236.601086   1.4731135531135
      236.679764   1.6350915750916
      236.759421   2.2241758241758
      236.854826   1.2692307692308
      236.938081   1.2643956043956
      237.015579               1.32
      237.093621   1.3691575091575
      237.173774   1.4223443223443
       237.25227   1.4852014652015
      237.332081   1.4900366300366
      237.408784   1.5698168498169
      237.487624   2.0799267399267
      237.582453   1.3586813186813
      237.659908   1.2668131868132
      237.738841   1.3860805860806
      237.817629   1.4328205128205
       237.89599   1.5093772893773
      237.975239   1.5142124542124
       238.06724   3.1992673992674
238.14602800001    1.5085714285714
      238.223413   1.6745787545788
      238.302357   2.2967032967033
      238.381703   1.2764835164835
      238.460677    1.325641025641
      238.540924   1.3578754578755
      238.636133   1.3941391941392
238.71434800001    1.5150183150183
      238.794453   1.4795604395604
      238.875845   1.2821245421245
      238.955114   1.4989010989011
      239.034179   1.7696703296703
      239.114432   1.8373626373626
       239.19242   1.2724542124542
      239.272081   1.3417582417582
      239.353073   1.3925274725275
      239.433094   1.4408791208791
239.51391400001    1.5480586080586
      239.608711   1.4924542124542
      239.688301   1.4843956043956
      239.766773   1.5682051282051
      239.846781   1.9260073260073
      239.927611   1.6520146520146
      240.006552   1.3820512820513
      240.087196   1.3941391941392
       240.16579   1.4175091575092
      240.244187   1.4384615384615
      240.324178   1.4932600732601
       240.40385   1.4860073260073
      240.499336   3.1219047619048
      240.579912   1.4811721611722
      240.657795   1.6528205128205
      240.736119   2.1919413919414
      240.816273   1.3457875457876
      240.895273   1.3377289377289
      240.975032   1.3538461538461
      241.054601   1.3933333333333
       241.13342   1.4328205128205
      241.227504   1.4521611721612
      241.307144   3.1912087912088
      241.385629   1.4860073260073
      241.463645   1.6391208791209
      241.543755   2.1701831501832
       241.62341   1.3103296703297
      241.703623   1.3619047619048
      241.781002   1.4046153846154
      241.875287   1.4046153846154
      241.951541   1.5295238095238
       242.02895   1.6068864468865
      242.108987   1.4964835164835
      242.188245   1.5182417582418
242.26848400001    1.5875457875458
      242.345748   2.0073992673993
      242.441087   1.4384615384615
      242.520552   1.3135531135531
      242.599599   1.3586813186813
      242.679816   1.3925274725275
      242.760108    1.412673992674
      242.839404   1.4787545787546
      242.919935   1.4578021978022
      243.002039   3.1920146520147
      243.075635   1.5085714285714
      243.155435   1.6826373626374
       243.25004   2.1967765567766
      243.330496   1.3103296703297
       243.40713   1.3353113553114
      243.485501   1.3627106227106
      243.565884   1.4320146520146
      243.645999   1.4650549450549
      243.724961   1.5770695970696
      243.803553   1.5496703296703
      243.897728   1.4465201465202
       243.97578   1.6028571428571
       244.05342   1.8728205128205
      244.132559   1.8857142857143
      244.211371   1.3997802197802
      244.292815    1.423956043956
      244.371866   1.4328205128205
      244.452744   1.4561904761905
      244.532414   1.5246886446886
      244.612354   1.4626373626374
      244.703233    1.360293040293
      244.784159   1.5440293040293
      244.864451   1.8752380952381
      244.944237    1.545641025641
      245.028917   1.2498901098901
      245.105224               1.32
      245.185951   1.3320879120879
      245.265054   1.4013919413919
      245.345514   1.4860073260073
      245.424691    1.481978021978
      245.505316   2.1564835164835
       245.58518   1.5520879120879
      245.665985   1.7704761904762
       245.74739   2.1274725274725
245.82725600001    1.3224175824176
      245.917025    1.394945054945
      245.998103   1.4513553113553
246.07378900001    1.4658608058608
      246.152461   1.5117948717949
      246.233058    1.510989010989
      246.325387   2.6230769230769
      246.405534    1.481978021978
      246.483266   1.6012454212454
      246.563368   2.0718681318681
      246.644316   1.3304761904762
      246.723555   1.3288644688645
      246.802275   1.3667399267399
246.881814   1.4086446886447
246.977415   1.4424908424908
247.056043   1.4948717948718
247.136622   1.5101831501831
247.214835   1.5359706959707
247.295375   1.6084981684982
247.374096    2.014652014652
247.453431   1.5029304029304
  247.5305   1.3288644688645
247.609915   1.3739926739927
247.689027   1.4021978021978
247.785046   1.5142124542124
247.865189   1.4779487179487
247.946133   1.3941391941392
248.024031   1.5851282051282
248.101839   1.8478388278388
248.182021   1.6665201465202
    248.26   1.2917948717949
248.340194    1.349010989011
248.418314   1.3957509157509
248.514226   1.4150915750916
248.594438   1.4376556776557
248.672921    2.014652014652
248.751356   1.4441025641026
248.829179   1.5794871794872
248.906902    2.054945054945
 248.98645      1.29663003663
249.067763   1.2684249084249
249.146494   1.3208058608059
249.242446    1.407032967033
249.322888   1.4578021978022
249.402554   1.4924542124542
249.482437   3.1920146520147
249.561828      1.51663003663
249.639844   1.6568498168498
249.717524   2.2080586080586
249.794822   1.3191941391941
249.875763    1.372380952381
249.971081   1.4610256410256
250.051323   1.4803663003663
 250.13119   1.5335531135531
250.212124   1.5198534798535
250.291011   2.9792673992674
250.369839   1.5029304029304
250.447884    1.661684981685
250.526863   2.2185347985348
  250.6046   1.3167765567766
250.700358   1.3079120879121
250.781429   1.3683516483517
250.860139   1.3635164835165
250.938763   1.4150915750916
251.017681   1.3667399267399
251.097595   1.3465934065934
251.174681   1.5005128205128
251.267053   1.9082783882784
251.344217   1.4924542124542
251.424121   1.2974358974359
251.501179   1.3619047619048
 251.58148   1.4215384615385
251.658027   1.4715018315018
251.752562   1.5794871794872
251.832949   1.5424175824176
251.912954   3.1646153846154
251.990635   1.6060805860806
252.070624   1.7882051282051
252.149671    2.252380952381
252.230357   1.3538461538461
  252.3099   1.3610989010989
252.387452   1.3828571428571
      252.467766   1.4287912087912
      252.562354    1.476336996337
      252.640974   1.5504761904762
      252.720482   1.5367765567766
      252.798363   1.4021978021978
      252.879442    1.545641025641
        252.9579   1.8027106227106
      253.037748   1.8051282051282
      253.116212   1.2772893772894
      253.196271   1.3175824175824
      253.277692   1.3715750915751
        253.3712   1.4449084249084
      253.450615    1.534358974359
      253.529989   1.5150183150183
      253.610421   3.1912087912088
      253.688423   1.4916483516484
      253.767263   1.6794139194139
      253.846958   2.2080586080586
      253.938458   1.2845421245421
      254.015373   1.3345054945055
      254.092824    1.383663003663
      254.171362   1.4191208791209
      254.251308   1.4739194139194
      254.331294    1.551282051282
      254.411512   1.4827838827839
      254.490061   1.5214652014652
       254.58409   1.5424175824176
      254.663678   1.9115018315018
      254.743512   1.6350915750916
      254.822564   1.3361172161172
254.90201700001    1.3506227106227

      254.981956   1.3675457875458
      255.062519   1.3989743589744
      255.142482   1.4545787545788
      255.221972   1.5545054945055
      255.299965   1.5198534798535
      255.396115   1.4118681318681
       255.47444   1.5408058608059
      255.551196   1.7914285714286
      255.628625   1.9824175824176
      255.709125   1.3135531135531
       255.78689   1.3812454212454
      255.879643   1.4054212454213
      255.958151   1.4779487179487
      256.036603      1.51663003663
      256.113231   1.6157509157509
      256.192385    1.551282051282
       256.28562   1.5085714285714
       256.36421   1.5520879120879
      256.444728   1.8494505494505
      256.522482   2.0082051282051
       256.60123   1.2869597069597
256.68035900001    1.3216117216117
      256.760113   1.3530402930403
      256.854218   1.3699633699634
      256.929727    1.436043956044
      257.008942   1.3989743589744
      257.086543   3.1952380952381
      257.166963   1.4731135531135
       257.24356   1.6576556776557
      257.339821   2.2096703296703
        257.4176   1.2926007326007
      257.493585      1.34336996337
      257.571828   1.3747985347985
      257.648469   1.4021978021978
      257.728722   1.4843956043956
        257.8239   1.5303296703297
      257.900921   1.5424175824176
      257.980402   3.2032967032967
      258.058652   1.5730402930403
      258.138832   1.7277655677656
       258.21759   2.2185347985348
      258.301578   1.3570695970696
      258.382112    1.378021978022
      258.463154   1.3788278388278
      258.542775   1.4199267399267
      258.624008   1.4924542124542
      258.703121   1.5536996336996
      258.784432      1.56336996337
258.86437000001    3.1613919413919
      258.945442   1.4715018315018
      259.023988   1.6697435897436
      259.114641   2.1838827838828
      259.205271   1.2780952380952
      259.272878   1.3296703296703
      259.352601   1.3538461538461
      259.430678   1.4038095238095
      259.512053   1.5198534798535
      259.593172   1.4779487179487
      259.673684   1.4876190476191
      259.753488   1.5150183150183
      259.842573   1.7414652014652
      259.922671   2.0025641025641
      260.003244   1.3312820512821
      260.083262   1.3997802197802
      260.163237   1.4150915750916
      260.238563   1.4457142857143
      260.321912   1.4876190476191
      260.402008   1.4940659340659
       260.48148   3.1928205128205
      260.571735      1.51663003663

      260.651907   1.7052014652015
      260.732121   2.2064468864469
      260.812511   1.3046886446886
      260.892954   1.3280586080586
      260.973441   1.3119413919414
261.05303900001    1.3683516483517
      261.132562   1.4505494505495
      261.220371   1.4852014652015
      261.298425   3.1944322344322
      261.378897   1.5134065934066
      261.458539   1.6737728937729
      261.538669   2.2306227106227
      261.619282   1.3449816849817
       261.69947   1.3643223443223
      261.780092   1.4030036630037
      261.859704   1.4167032967033
      261.939997   1.5416117216117
262.02025600001    1.5246886446886
      262.110121   3.1912087912088
      262.189855      1.56336996337
262.27259800001    1.7616117216117
      262.351431   2.2483516483517
      262.431783    1.279706959707
      262.513205   1.3127472527472
      262.592767   1.3562637362637
      262.672566   1.3852747252747
       262.75403   1.4835897435897
      262.833651   1.4513553113553
      262.913257   1.8663736263736
262.99375600001    1.4602197802198
      263.074133    1.690695970696
      263.153685   2.0847619047619
      263.245225   1.2780952380952
263.31639200001    1.3530402930403
      263.395811    1.389304029304
       263.48674    1.447326007326
      263.567186    1.499706959707
       263.64729      1.51663003663
      263.728036   2.6617582417582
      263.808023    1.481978021978
      263.888415   1.6358974358974
      263.967936   2.1669597069597
      264.047244   1.4199267399267
      264.129068   1.3747985347985
      264.207986   1.4134798534799
      264.301634   1.4481318681319
      264.380725   1.4787545787546
      264.461253   1.5359706959707
      264.540563   1.5335531135531
      264.620997   3.1904029304029
      264.700464   1.4852014652015
      264.779758   1.6641025641026
      264.860931   2.2185347985348
      264.941538   1.2740659340659
      265.020324   1.2539194139194
      265.100613   1.3127472527472
      265.180508    1.354652014652
265.26123400001    1.4271794871795
      265.353672   1.4295970695971
      265.434175   3.1968498168498
      265.514042   1.4771428571429
       265.59316   1.6697435897436
      265.672783   2.2451282051282
      265.751605   1.2780952380952
      265.831464   1.3232234432234
      265.911311   1.3747985347985
      265.990713   1.4481318681319
      266.070671    1.476336996337
      266.151134   1.5029304029304
      266.232462   1.4900366300366
      266.325463   2.9808791208791
      266.405921   1.4835897435897
      266.484301   1.6060805860806
      266.564442   2.1500366300366
      266.644634   1.3385347985348
      266.724184   1.3240293040293
      266.803477   1.3627106227106
      266.882842   1.4142857142857
      266.962917    1.412673992674
      267.043796   1.4384615384615
      267.123507   1.5279120879121
267.21712000001    1.4634432234432
      267.296749   1.5504761904762
      267.377593   1.6068864468865
      267.455145   1.9614652014652
      267.532447   1.6286446886447
      267.611193   1.3328937728938
       267.69056   1.3812454212454
      267.782087   1.4191208791209
      267.859252   1.4602197802198
      267.937554   1.5408058608059
      268.017877   1.5609523809524
      268.098323   3.1847619047619
      268.176669   1.5150183150183
      268.256083   1.6641025641026
      268.351279   2.1935531135531
      268.430257   1.2756776556777
      268.509697   1.2893772893773
      268.587401   1.3482051282051
      268.664426   1.3804395604396
      268.741836   1.4247619047619
      268.821607   1.5279120879121
      268.917126      1.51663003663
      268.997298   1.3465934065934
      269.078148    1.505347985348
      269.157447   1.7817582417582
      269.237225   1.8438095238095
      269.317186   1.3014652014652
       269.39686   1.3530402930403
      269.478501   1.4030036630037
      269.556017   1.4352380952381
      269.636634   1.4827838827839
      269.715221   1.6004395604396
269.79462000001    1.5641758241758
      269.887491   1.4537728937729
      269.967241   1.6068864468865
      270.045349   1.8010989010989
      270.125651   2.0904029304029
      270.203828    1.372380952381
      270.281748   1.3675457875458
      270.361277   1.4223443223443
      270.454906   1.4521611721612
      270.534494   1.4827838827839
      270.614454   1.5279120879121
      270.695511    1.528717948718
      270.776164   2.7600732600733
      270.853717   1.5254945054945
      270.934272   1.6117216117216
      271.014082   2.1049084249084
      271.094312   1.3022710622711
      271.171963   1.2611721611722
      271.251426   1.3264468864469
      271.345382   1.3578754578755
      271.424909   1.4078388278388
       271.50538   1.4666666666667
      271.581873   1.4795604395604
      271.660684   1.5182417582418
      271.739106   1.5810989010989
      271.819434   1.9920879120879
      271.900423   1.4481318681319
      271.993979   1.3473992673993
      272.073696   1.4094505494506
      272.154214   1.4158974358974
      272.234923   1.4553846153846
      272.314116    1.505347985348
      272.391949   1.5528937728938
      272.471865   1.4610256410256
      272.552461   1.5536996336996
      272.630174   1.5738461538461
      272.709687   1.9026373626374
      272.789797   1.5988278388278
      272.871556   1.2901831501831
       272.96524   1.2926007326007
      273.044197    1.325641025641
      273.124834   1.3989743589744
      273.205308   1.4553846153846
      273.282759   1.5271062271062
      273.361881   1.5383882783883
      273.441126   3.1799267399267
      273.521801   1.5448351648352
      273.613532   1.7189010989011
      273.689984   2.2016117216117
      273.768185   1.3264468864469
      273.847296   1.3643223443223
      273.926763    1.436043956044
      274.007091   1.4980952380952
      274.099884      1.51663003663
       274.17838   1.5536996336996
      274.257987   1.5319413919414
      274.337987   3.1855677655678
       274.41468   1.5134065934066
      274.495744   1.6455677655678
      274.574313   2.1315018315018
      274.653496   1.2837362637363
      274.733786   1.2934065934066
      274.814065   1.3506227106227
      274.894717   1.3933333333333
      274.984079   1.3772161172161
      275.064091   1.5327472527473
       275.14661   1.4924542124542
      275.224291   1.3772161172161
      275.304346   1.5279120879121
      275.381829   1.8373626373626
      275.462302   1.7688644688645
275.54288100001    1.3030769230769
      275.631514    1.372380952381
      275.711622   1.3812454212454
      275.791869   1.4545787545788
       275.87153    1.505347985348
      275.946363   1.6028571428571
       276.03594   1.6060805860806
      276.116111   2.0823443223443
      276.196462   1.5875457875458
       276.27224   1.7495238095238
      276.366363   2.1605128205128
      276.441732   1.3224175824176
      276.522527   1.3667399267399
        276.5999   1.3627106227106
      276.677261   1.4118681318681
      276.755722   1.4779487179487
       276.85168   1.5158241758242
      276.930398   1.5037362637363
      277.010493   2.5175091575092
      277.089721   1.4755311355311
      277.169381   1.6310622710623
      277.249173   2.0952380952381
      277.330862   1.3828571428571
      277.406826   1.3095238095238
      277.486401   1.3627106227106
       277.56618   1.3578754578755
      277.663129   1.4094505494506
      277.740523   1.4408791208791
      277.818808   1.8986080586081
      277.898137   1.4618315018315
      277.977815   1.5891575091575
      278.055013   2.0420512820513
      278.135162   1.3860805860806
      278.215908   1.3167765567766
      278.301659    1.394945054945
      278.377422   1.4247619047619
      278.464302    1.452967032967
       278.54618   1.5230769230769
      278.623591   1.5383882783883
      278.703781   3.1863736263736
      278.784259   1.5150183150183
278.86387000001    1.6834432234432
      278.944256   2.1226373626374
279.02498400001    1.2539194139194
      279.105265   1.3119413919414
      279.194086   1.3385347985348
      279.273933   1.4215384615385
      279.353645   1.5174358974359
      279.430675   1.5835164835165
      279.511084   1.5303296703297
       279.59083    1.499706959707
      279.680141   1.5947985347985
         279.761   1.9147252747253
      279.841484   1.6230036630037
      279.920039   1.3610989010989
      280.000788   1.4650549450549
      280.080836   1.4795604395604
      280.161612   1.5625641025641
280.24013100001    1.4868131868132
      280.334218   2.0581684981685
      280.412092   1.5214652014652
      280.492228   1.7164835164835
       280.57219   2.1041025641026
     280.652056   1.2353846153846
     280.731294   1.2829304029304
     280.810885   1.3095238095238
     280.891668   1.3812454212454
     280.969086    1.372380952381
     281.047967   2.5787545787546
     281.143941   1.4368498168498
     281.223705    1.667326007326
     281.303621   2.1339194139194
