Tiempo_s,Valor
0.0284710000008345,1.56417582417582
2.7573049999997,1.68021978021978
2.81017400000244,2.27575091575092
2.85528000000119,1.45054945054945
2.8963030000031,1.33531135531136
2.93405700000375,1.2047619047619
2.97331199999899,1.3570695970696
3.01073600000143,1.32644688644689
3.04146599999815,1.39897435897436
3.07467400000244,1.52468864468864
3.1037119999975,1.46344322344322
3.12535300000012,1.49648351648352
3.14659000000358,1.57948717948718
3.16658900000155,1.90989010989011
3.18864299999922,1.55128205128205
3.21921900000423,1.37721611721612
3.23981700000167,1.31113553113553
3.26057699999958,1.45135531135531
3.28249400000274,1.40058608058608
3.30830000000447,1.44974358974359
3.33935900000483,1.476336996337
3.36878199999779,1.54967032967033
3.39657100000232,3.1952380952381
3.43154399999976,1.54483516483516
3.45977700000256,1.73179487179487
3.48169600000232,2.29831501831502
3.50438100000471,1.29098901098901
3.52342000000179,1.31838827838828
3.5443580000028,1.36271062271062
3.56836699999869,1.51582417582418
3.58903299999982,1.56498168498168
3.61074300000072,1.60527472527473
3.63146999999881,1.52549450549451
3.65249899999797,1.58915750915751
3.6738200000003,1.56498168498168
3.69435199999809,1.98886446886447
3.71532699999958,1.47391941391941
3.73738800000399,1.2643956043956
3.76019099999964,1.38688644688645
3.78463400000334,1.36029304029304
3.81118400000036,1.37641025641026
3.8394849999994,1.44087912087912
3.86304699999839,1.36673992673993
3.89147699999809,3.18556776556777
3.91898099999875,1.46424908424908
3.95361200000346,1.66893772893773
3.99056899999827,2.29912087912088
4.02761900000274,1.39413919413919
4.07230799999833,1.3796336996337
4.10899700000137,1.39172161172161
4.14810000000149,1.41025641025641
4.1890680000037,1.4803663003663
4.22932599999756,1.5770695970696
4.26588199999928,1.476336996337
4.30713199999928,1.76967032967033
4.34807999999821,1.77289377289377
4.38686800000072,2.07025641025641
4.4266930000037,1.58996336996337
4.46496999999881,1.32161172161172
4.50556899999827,1.34981684981685
4.54377700000256,1.36351648351648
4.58131499999762,1.40864468864469
4.62305900000036,1.52468864468864
4.6620700000003,1.49084249084249
4.70533200000227,1.44087912087912
4.74106400000304,1.51018315018315
4.79313499999791,1.77692307692308
4.87261200000346,1.58351648351648
4.95299400000274,1.23216117216117
5.03210100000352,1.29985347985348
5.12711699999869,1.34578754578755
5.20656100000441,1.43120879120879
5.28482100000232,1.48842490842491
5.36062399999797,1.52065934065934
5.43886100000143,3.19201465201465
5.51840500000119,1.54725274725275
5.59844600000232,1.71487179487179
5.67779699999839,2.20322344322344
5.77462099999934,1.40703296703297
5.85413899999857,1.51824175824176
5.93421100000292,1.53516483516484
6.01353400000185,1.54161172161172
6.09257900000364,1.57304029304029
6.17276799999923,1.5214652014652
6.25110700000077,3.19846153846154
6.33260300000012,1.4843956043956
6.40994600000232,1.63267399267399
6.49105900000036,2.15970695970696
6.57140900000185,1.24666666666667
6.65141099999845,1.27728937728938
6.73229500000179,1.33128205128205
6.81284300000221,1.31919413919414
6.90227400000393,1.37882783882784
6.98190600000322,1.41347985347985
7.06201200000197,3.18315018315018
7.14208300000429,1.48761904761905
7.22245800000429,1.6447619047619
7.30236900000274,2.18871794871795
7.38171299999952,1.33208791208791
7.45949199999869,1.3570695970696
7.55007200000435,1.40542124542125
7.62975900000334,1.43604395604396
7.7102330000028,1.47956043956044
7.79049000000209,1.61091575091575
7.87088400000334,1.65846153846154
7.9502349999994,1.61333333333333
8.03122399999946,1.63589743589744
8.10970899999887,1.87201465201465
8.1895380000025,1.89538461538462
8.27167199999839,1.31758241758242
8.35124100000411,1.33531135531136
8.44486400000006,1.34901098901099
8.51437900000066,1.42153846153846
8.59437600000203,1.50857142857143
8.67417899999768,1.63428571428571
8.75612399999797,1.62058608058608
8.83714599999785,1.42234432234432
8.91647100000083,1.52227106227106
9.00664400000125,1.88813186813187
9.08653199999779,1.71326007326007
9.1667330000028,1.3240293040293
9.24643400000036,1.39736263736264
9.32643900000304,1.38930402930403
9.40986600000411,1.41912087912088
9.48549199999869,1.53355311355311
9.56593600000441,1.45135531135531
9.64504600000381,1.48681318681319
9.73581599999964,1.50615384615385
9.81581300000101,1.84542124542125
9.89516899999976,1.92681318681319
9.97501900000125,1.36271062271062
10.0549790000021,1.37721611721612
10.1350930000022,1.40864468864469
10.2150560000017,1.43523809523809
10.3016420000046,1.49084249084249
10.3796290000007,1.52388278388278
10.4594179999977,1.5174358974359
10.5402150000036,3.19282051282051
10.6211689999998,1.50373626373626
10.7008039999977,1.65846153846154
10.7798819999993,2.13150183150183
10.8730399999991,1.23216117216117
10.9524210000038,1.27245421245421
11.0310649999976,1.34095238095238
11.1106700000018,1.42234432234432
11.1914750000015,1.49084249084249
11.2695790000036,1.55531135531136
11.3496319999993,1.68666666666667
11.4281209999993,1.65201465201465
11.5218840000033,1.77450549450549
11.601814000003,1.65684981684982
11.6818030000031,1.92761904761905
11.7610090000033,2.10813186813187
11.8401719999984,1.44732600732601
11.9200780000016,1.46424908424908
12.0001290000007,1.4392673992674
12.0766510000005,1.41509157509157
12.1548220000044,1.42395604395604
12.2509439999983,1.40380952380952
12.3217060000002,3.1992673992674
12.4016939999983,1.41106227106227
12.4885450000018,1.56739926739927
12.5687850000039,2.15567765567766
12.6487760000005,1.22571428571429
12.7301649999991,1.29501831501831
12.8097550000027,1.2829304029304
12.8904420000017,1.31838827838828
12.9707250000015,1.38769230769231
13.0507990000024,1.46344322344322
13.1297100000009,1.61978021978022
13.2091700000018,1.59076923076923
13.2893570000008,1.57142857142857
13.3697679999992,1.57465201465201
13.4504350000024,1.81882783882784
13.5345179999992,2.01304029304029
13.615199000001,1.35868131868132
13.6951799999997,1.43120879120879
13.7757269999981,1.50776556776557
13.8572899999991,1.64879120879121
13.9461499999985,1.66571428571429
14.0263259999976,1.67538461538462
14.1060300000012,1.66652014652015
14.1859549999982,2.62468864468864
14.2722920000032,1.54805860805861
14.3427370000035,1.63912087912088
14.4316030000001,2.13794871794872
14.5046050000042,1.23860805860806
14.5846099999994,1.20717948717949
14.6651970000044,1.256336996337
14.7461400000006,1.30065934065934
14.8264329999983,1.27003663003663
14.9168320000023,1.33289377289377
14.9965280000046,1.41347985347985
15.0766840000004,3.19846153846154
15.1573229999989,1.44813186813187
15.2373849999979,1.63106227106227
15.3170170000046,2.23223443223443
15.3970680000037,1.30710622710623
15.4843540000021,1.34417582417582
15.5554439999983,1.40622710622711
15.6454430000037,1.45538461538462
15.7267679999992,1.53113553113553
15.8061209999993,1.6592673992674
15.8869409999996,1.72615384615385
15.9671979999989,1.72534798534799
16.047387000002,1.68586080586081
16.1266000000015,1.64717948717949
16.2066270000041,2.02512820512821
16.2874140000045,1.40461538461538
16.3684340000004,1.25391941391941
16.4474230000004,1.3014652014652
16.5408590000048,1.34739926739927
16.6208730000034,1.40783882783883
16.7017049999982,1.47956043956044
16.7796579999998,1.56417582417582
16.8611649999991,1.43282051282051
16.9396740000024,3.18717948717949
17.0157590000033,1.53194139194139
17.0969750000015,1.71728937728938
17.1883409999982,2.23384615384615
17.2647910000011,1.32483516483516
17.340925999999,1.34498168498168
17.4205209999979,1.3756043956044
17.5157080000043,1.40864468864469
17.5920820000023,1.45377289377289
17.6734120000005,1.50615384615385
17.7534919999987,1.60688644688645
17.8310289999992,1.67135531135531
17.9104769999981,1.83413919413919
17.9879509999976,1.60446886446886
18.0798180000037,1.7785347985348
18.1596520000026,2.05978021978022
18.2371710000038,1.32483516483516
18.3176300000027,1.32805860805861
18.396388000004,1.34578754578755
18.4750680000037,1.38688644688645
18.5529699999988,1.47714285714286
18.631873999998,1.476336996337
18.7271850000024,1.603663003663
18.8058660000041,1.52065934065934
18.8860960000008,1.55692307692308
18.9656290000007,1.51582417582418
19.0455729999989,1.81399267399267
19.1252290000021,2.05655677655678
19.2052419999987,1.42153846153846
19.2859140000045,1.42879120879121
19.3650480000004,1.44652014652015
19.4444970000014,1.46827838827839
19.5253669999987,1.54080586080586
19.6041829999983,1.56175824175824
19.7016569999978,1.55692307692308
19.7789560000002,2.86725274725275
19.8590860000029,1.6221978021978
19.9391340000033,1.79545787545788
20.0182780000046,2.24029304029304
20.0985160000026,1.28454212454212
20.1787740000039,1.31113553113553
20.2554289999977,1.36915750915751
20.3350230000019,1.40945054945055
20.4147730000019,1.4392673992674
20.5107910000011,1.52710622710623
20.5871150000021,1.48923076923077
20.6648280000016,1.43443223443223
20.7441230000034,1.50695970695971
20.8227899999991,1.70923076923077
20.9030139999986,1.66571428571429
20.9818200000003,1.22087912087912
21.0629079999998,1.27728937728938
21.1571770000011,1.36754578754579
21.2360439999998,1.45538461538462
21.3169950000048,1.48681318681319
21.3968180000037,1.603663003663
21.4766389999986,1.58029304029304
21.5551909999996,1.52630036630037
21.6344470000044,1.58351648351648
21.7138959999979,1.83333333333333
21.7935879999995,1.95663003663004
21.8740700000003,1.44168498168498
21.9540670000017,1.46586080586081
22.033137000002,1.44893772893773
22.1274460000023,1.48117216117216
22.2074830000028,1.53355311355311
22.287449000001,1.62703296703297
22.3652140000016,1.58754578754579
22.4452260000035,1.57062271062271
22.5253180000037,1.67135531135531
22.6043910000026,1.98564102564103
22.6852129999995,1.72454212454212
22.7642009999976,1.29501831501831
22.8446590000018,1.27406593406593
22.9248969999999,1.27084249084249
23.0177520000041,1.32161172161172
23.0982890000045,1.43040293040293
23.1767110000029,1.42959706959707
23.2545940000042,1.36190476190476
23.3319160000011,1.48923076923077
23.4123680000007,1.83252747252747
23.4925490000024,1.76886446886447
23.5719289999977,1.29824175824176
23.6678700000048,1.3425641025641
23.7475289999992,1.37399267399267
23.827574000001,1.51824175824176
23.9073000000045,1.6552380952381
23.9854680000022,1.64556776556777
24.0626770000011,1.57062271062271
24.1417770000026,1.63186813186813
24.2217560000047,1.88007326007326
24.3037560000047,1.6778021978022
24.3823079999983,1.3240293040293
24.4619069999978,1.28615384615385
24.5525869999975,1.40783882783883
24.6252150000036,1.37641025641026
24.7052730000019,1.63912087912088
24.786425999999,1.64234432234432
24.8757529999986,1.56659340659341
24.9562599999979,1.49648351648352
25.0371090000048,1.78901098901099
25.1174430000037,1.46747252747253
25.195498999998,1.21846153846154
25.2764109999985,1.27648351648352
25.3563220000044,1.35465201465201
25.4368030000031,1.43846153846154
25.5176340000033,1.59641025641026
25.6114020000026,1.71326007326007
25.6811120000035,2.63435897435897
25.7608060000017,1.55047619047619
25.8406340000033,1.82285714285714
25.9203420000002,2.21208791208791
26.0004699999988,1.32886446886447
26.0913280000016,1.35304029304029
26.1714109999985,1.37882783882784
26.2519950000048,1.40945054945055
26.3317639999986,1.49245421245421
26.4099680000022,1.47956043956044
26.4872670000046,3.18879120879121
26.5820769999996,1.47230769230769
26.6622960000038,1.67860805860806
26.7418990000039,2.21772893772894
26.8220600000024,1.22249084249084
26.9018420000002,1.25391941391941
26.9829329999983,1.30710622710623
27.0635080000013,1.39978021978022
27.1418420000002,1.47391941391941
27.2215399999991,1.53677655677656
27.3015799999982,1.54967032967033
27.377950000003,3.18879120879121
27.4735200000033,1.53355311355311
27.5526970000044,1.68102564102564
27.6300869999975,2.20080586080586
27.7067089999989,1.3796336996337
27.786188000001,1.39655677655678
27.8661279999986,1.47714285714286
27.9462060000002,1.49084249084249
28.0264430000037,1.49245421245421
28.1199320000038,1.51582417582418
28.1979240000024,1.57142857142857
28.2779479999989,1.56578754578755
28.3571679999977,3.19282051282051
28.4343489999995,1.51340659340659
28.5132670000046,1.66007326007326
28.5935890000016,2.17824175824176
28.6730500000045,1.33289377289377
28.7537480000034,1.31838827838828
28.8458700000048,1.27970695970696
28.9248449999988,1.30388278388278
29.0020450000018,1.37076923076923
29.0805610000044,1.4578021978022
29.1710670000017,1.56336996336996
29.2506750000045,1.55289377289377
29.3281499999985,1.45538461538462
29.4086539999992,1.5625641025641
29.4880769999996,1.84380952380952
29.5687400000021,1.88732600732601
29.6450520000011,1.33450549450549
29.725251000002,1.37076923076923
29.817550999999,1.48358974358974
29.8964940000027,1.5214652014652
29.9748810000047,1.55531135531136
30.0527639999986,1.57545787545788
30.1317929999977,1.66168498168498
30.2109970000014,1.59479853479853
30.2916270000041,1.8647619047619
30.3812599999979,1.52630036630037
30.4625029999986,1.71970695970696
30.5430930000022,2.10087912087912
30.6282239999995,1.30952380952381
30.7016220000014,1.35304029304029
30.7811640000045,1.38124542124542
30.8613100000024,1.36996336996337
30.9430610000044,1.42637362637363
31.0227190000042,1.4843956043956
31.1018999999985,1.59076923076923
31.1916080000028,1.5625641025641
31.2722060000002,1.47956043956044
31.3515410000011,1.60608058608059
31.4311230000034,1.89699633699634
31.512012000002,1.8010989010989
31.5927800000012,1.30791208791209
31.677887000002,1.33128205128205
31.7581689999998,1.38124542124542
31.838751000002,1.49326007326007
31.9184179999977,1.55450549450549
31.9982609999999,1.58835164835165
32.0778440000042,1.57787545787546
32.1583060000017,3.19120879120879
32.2382580000013,1.51421245421245
32.3224189999998,1.69311355311355
32.4012239999995,2.22095238095238
32.4827700000033,1.28373626373626
32.5639109999984,1.31516483516484
32.6450429999977,1.34336996336996
32.7278070000038,1.41106227106227
32.8072890000045,1.42395604395604
32.8875090000033,1.4578021978022
32.9685579999983,1.55450549450549
33.0469120000005,1.54322344322344
33.1270280000046,1.43120879120879
33.207376000002,1.60043956043956
33.2875300000012,1.91472527472527
33.3770460000038,1.71809523809524
33.4584230000004,1.31032967032967
33.5383590000048,1.37076923076923
33.6191710000038,1.38930402930403
33.7021140000001,1.43684981684982
33.7726620000005,1.49326007326007
33.8628790000007,1.67538461538462
33.9435480000004,1.6367032967033
34.023311999999,1.50857142857143
34.1038959999979,1.61575091575092
34.1837180000022,1.86959706959707
34.2724350000024,2.00578754578755
34.3426569999978,1.29985347985348
34.4215520000011,1.32
34.5021920000017,1.32
34.5824120000005,1.3610989010989
34.6736550000012,1.44168498168498
34.7483940000013,1.56981684981685
34.8295520000011,1.45860805860806
34.907862999998,1.45538461538462
34.9879409999996,1.49245421245421
35.0778680000007,1.85186813186813
35.1587250000015,1.70278388278388
35.2386640000045,1.31677655677656
35.3192040000036,1.35545787545788
35.3981160000041,1.39333333333333
35.4783280000016,1.45054945054945
35.5577829999998,1.51018315018315
35.6383369999975,1.54080586080586
35.7261300000027,1.65201465201465
35.8041780000031,1.65362637362637
35.8852260000035,1.63509157509158
35.9643810000047,1.64153846153846
36.0438530000001,1.82849816849817
36.1235109999999,2.09443223443223
36.2042719999999,1.32483516483516
36.2955080000013,1.34739926739927
36.3757880000025,1.34820512820513
36.455637000002,1.40300366300366
36.536686999999,1.45377289377289
36.6153980000019,1.5214652014652
36.6955710000023,1.57948717948718
36.7761490000039,1.5810989010989
36.8543720000014,1.9018315018315
36.9325359999984,1.48358974358974
37.0268810000047,1.58754578754579
37.1072269999981,2.01545787545788
37.1877180000022,1.41025641025641
37.2661080000028,1.30871794871795
37.3450350000039,1.37318681318681
37.4231389999986,1.36915750915751
37.5024830000028,1.42234432234432
37.5829780000001,1.48842490842491
37.6631539999992,1.49084249084249
37.7420729999989,1.97355311355311
37.8226310000047,1.6181684981685
37.9185930000022,1.7229304029304
37.9978510000035,2.14358974358974
38.0777230000049,1.4618315018315
38.1563590000048,1.34095238095238
38.2368980000019,1.37802197802198
38.3164079999998,1.41025641025641
38.3962859999984,1.45457875457875
38.4761520000026,1.48358974358974
38.5566290000007,1.55450549450549
38.6369069999978,1.54967032967033
38.7170989999995,3.1952380952381
38.8082459999993,1.50857142857143
38.8879519999996,1.60446886446886
38.9682960000038,2.11941391941392
39.045501000002,1.26761904761905
39.124689000003,1.30468864468864
39.2033910000026,1.3651282051282
39.2840200000033,1.41186813186813
39.364311999999,1.48520146520147
39.4434560000002,1.52791208791209
39.5229790000021,1.62139194139194
39.6031420000047,1.58029304029304
39.6973020000011,1.61252747252747
39.7747789999992,1.55531135531136
39.8538210000023,1.85025641025641
39.9337340000048,2.15406593406593
40.0141010000035,1.39494505494505
40.0931670000032,1.39575091575092
40.1708070000038,1.43120879120879
40.266561999999,1.43362637362637
40.3429940000027,1.4843956043956
40.4217089999989,1.55047619047619
40.4991740000024,1.60930402930403
40.5779200000018,1.54564102564103
40.6557969999984,1.61413919413919
40.7358070000038,1.65362637362637
40.8326290000007,1.87443223443223
40.9111520000026,1.60527472527473
40.990300999999,1.24102564102564
41.068939000003,1.29904761904762
41.1468229999989,1.32967032967033
41.2256330000013,1.38849816849817
41.3055230000019,1.46102564102564
41.3856679999977,1.57465201465201
41.4656630000025,1.55047619047619
41.5604109999985,1.52549450549451
41.6412410000041,1.5359706959707
41.7197030000016,1.76644688644689
41.7983159999996,2.01142857142857
41.8763360000029,1.41267399267399
41.955501000002,1.42315018315018
42.0362639999986,1.41992673992674
42.1171120000035,1.45860805860806
42.1968079999983,1.49245421245421
42.2752950000018,1.52952380952381
42.3680769999996,1.52952380952381
42.4482290000021,3.19201465201465
42.526675999999,1.48923076923077
42.6061719999984,1.64395604395604
42.6868489999995,2.11538461538462
42.7664580000043,1.31838827838828
42.8458489999995,1.28937728937729
42.9272309999987,1.34336996336996
43.0053680000007,1.39413919413919
43.0852480000034,1.46586080586081
43.165498999998,1.53113553113553
43.2616169999987,1.54725274725275
43.3418910000026,3.20168498168498
43.4217880000025,1.52791208791209
43.501949000001,1.67941391941392
43.5810960000008,2.1774358974359
43.6616810000017,1.30307692307692
43.7407140000016,1.32161172161172
43.8190930000022,1.45054945054945
43.8980469999984,1.50937728937729
43.9791480000019,1.54725274725275
44.0584140000045,1.56901098901099
44.1392260000035,1.53919413919414
44.2189730000049,3.16300366300366
44.3123910000026,1.49567765567766
44.3920720000044,1.63347985347985
44.4710150000006,2.14117216117216
44.5521750000045,1.30710622710623
44.6316710000038,1.31435897435897
44.7108159999996,1.35062271062271
44.789625,1.39978021978022
44.8693210000023,1.36190476190476
44.9498590000048,1.42717948717949
45.0297899999991,1.50212454212454
45.1097560000047,1.48117216117216
45.1896939999983,1.54080586080586
45.2860460000038,1.59882783882784
45.3655659999996,1.9614652014652
45.4450490000024,1.54080586080586
45.5250439999998,1.35062271062271
45.6057580000013,1.37641025641026
45.6859919999987,1.42234432234432
45.765325000003,1.46424908424908
45.844689000003,1.58593406593407
45.924550999999,1.63428571428571
46.004186999999,1.64153846153846
46.0862110000029,3.19846153846154
46.1647800000012,1.56095238095238
46.2449470000044,1.71245421245421
46.324625,2.27091575091575
46.4035700000003,1.29904761904762
46.4997700000033,1.31194139194139
46.5799140000045,1.35223443223443
46.66025,1.36593406593407
46.7397450000048,1.38849816849817
46.8199730000049,1.37479853479853
46.8987280000001,2.15487179487179
46.97775,1.37641025641026
47.057763000004,1.53838827838828
47.1374399999976,2.05333333333333
47.2176120000035,1.3385347985348
47.2977300000042,1.30871794871795
47.3781000000015,1.36673992673993
47.4579170000032,1.42153846153846
47.5516389999986,1.47472527472527
47.6303020000011,1.53274725274725
47.70975,1.60205128205128
47.7884010000005,1.55369963369963
47.867137000002,1.68586080586081
47.9445460000038,1.67296703296703
48.0380570000038,1.97355311355311
48.1157190000042,1.70197802197802
48.1930410000011,1.3610989010989
48.2725500000045,1.37157509157509
48.352125,1.40058608058608
48.4318229999989,1.42798534798535
48.5122040000036,1.46344322344322
48.5933779999986,1.51260073260073
48.6725900000036,1.53435897435897
48.7549460000023,3.19684981684982
48.8349160000011,1.44571428571429
48.9219320000038,1.61333333333333
49.0021050000042,2.19274725274725
49.0814439999983,1.29260073260073
49.1616630000025,1.3159706959707
49.2419780000001,1.38285714285714
49.3225590000004,1.39897435897436
49.4020659999996,1.43201465201465
49.4822320000008,1.476336996337
49.5617260000035,1.56739926739927
49.6516220000014,1.5214652014652
49.7339470000043,1.56739926739927
49.8135900000036,2.03479853479853
49.8922080000043,1.50857142857143
49.968512000002,1.3570695970696
50.0475359999985,1.41589743589744
50.1377990000024,1.4247619047619
50.2171510000005,1.46102564102564
50.3051820000038,1.50212454212454
50.3849340000004,1.57948717948718
50.4641750000045,1.5359706959707
50.5435249999985,2.05655677655678
50.6234840000048,1.51098901098901
50.7033220000043,1.74468864468864
50.7815080000013,2.15487179487179
50.8609809999987,1.24666666666667
50.941375,1.29340659340659
51.0345350000039,1.33934065934066
51.1124570000023,1.40461538461538
51.1911420000046,1.50212454212454
51.272012000002,1.5625641025641
51.3499039999992,1.57465201465201
51.4277239999995,2.09604395604396
51.5061410000026,1.53355311355311
51.6010610000044,1.63992673992674
51.6772280000001,2.09604395604396
51.7570460000038,1.37802197802198
51.8341689999998,1.35545787545788
51.9133000000045,1.41186813186813
51.9924120000005,1.42234432234432
52.0726649999991,1.44571428571429
52.1527040000036,1.51179487179487
52.2470399999991,1.49164835164835
52.3219060000032,1.40783882783883
52.4026090000048,1.51018315018315
52.482813000001,1.82446886446886
52.5623730000034,1.7229304029304
52.6421279999986,1.27648351648352
52.7233950000033,1.33450549450549
52.8040480000004,1.36915750915751
52.8841679999977,1.39010989010989
52.9704200000018,1.44087912087912
53.0509289999977,1.52307692307692
53.1306459999979,1.53516483516484
53.2113280000016,3.18879120879121
53.2895439999998,1.52549450549451
53.3697159999981,1.64315018315018
53.4503519999981,2.16051282051282
53.530487999998,1.35948717948718
53.611,1.36190476190476
53.6911150000021,1.38608058608059
53.7727170000002,1.43684981684982
53.8625040000007,1.56578754578755
53.9416850000024,1.61736263736264
54.0172829999998,1.64798534798535
54.0964160000011,1.58351648351648
54.1771799999997,1.53355311355311
54.2718889999986,1.54967032967033
54.3427690000013,1.91714285714286
54.4217749999985,1.59157509157509
54.5018650000021,1.26117216117216
54.5911730000004,1.30871794871795
54.6715429999977,1.32241758241758
54.7518910000026,1.38285714285714
54.8315759999976,1.40542124542125
54.9118779999986,1.40461538461538
54.9872060000002,3.20732600732601
55.0776789999977,1.45296703296703
55.1569399999976,1.66571428571429
55.2363030000031,2.22014652014652
55.3163779999986,1.33128205128205
55.3970830000043,1.36190476190476
55.4778049999997,1.38285714285714
55.557700000003,1.43120879120879
55.6379629999995,1.48761904761905
55.7151279999986,1.57304029304029
55.8053830000013,1.57545787545788
55.884748999998,3.11465201465201
55.9577400000021,1.57948717948718
56.0438420000002,1.68102564102564
56.1237330000028,2.11054945054945
56.203814000003,1.37641025641026
56.294987999998,1.33611721611722
56.3745799999982,1.37238095238095
56.4541030000001,1.41025641025641
56.534175999999,1.43201465201465
56.6144890000001,1.49084249084249
56.6943100000024,1.61494505494505
56.7727829999998,1.58915750915751
56.8526400000006,1.51018315018315
56.9341829999983,1.50212454212454
57.0119769999981,1.73421245421245
57.106699000001,2.03157509157509
57.1867639999986,1.33692307692308
57.2678259999976,1.38124542124542
57.3455710000023,1.41106227106227
57.4260710000023,1.43765567765568
57.5045989999995,1.49084249084249
57.5844320000038,1.48681318681319
57.6638440000042,3.1952380952381
57.7437220000029,1.48197802197802
57.8227440000027,1.67135531135531
57.9034109999984,2.17340659340659
57.9838189999983,1.35787545787546
58.0774820000008,1.34417582417582
58.1566319999993,1.38688644688645
58.2368849999979,1.41589743589744
58.3173770000041,1.45457875457875
58.3960890000016,1.50373626373626
58.4754010000005,1.52227106227106
58.5554470000043,3.19282051282051
58.6362250000015,1.63106227106227
58.7148669999987,1.7825641025641
58.7941330000013,2.25238095238095
58.8743159999996,1.30227106227106
58.9696920000017,1.31355311355311
59.0461620000005,1.34336996336996
59.1233220000044,1.38446886446886
59.20175,1.44087912087912
59.2799519999996,1.53355311355311
59.359248999998,1.52468864468864
59.4542150000036,1.44168498168498
59.5345300000012,1.50695970695971
59.6127859999985,1.77369963369963
59.692388000004,1.90989010989011
59.7719460000023,1.31194139194139
59.8529549999982,1.42637362637363
59.9338590000048,1.46424908424908
60.0127540000007,1.50212454212454
60.0926780000031,1.55369963369963
60.1727430000007,1.55772893772894
60.2535920000002,1.79545787545788
60.3315890000016,1.51663003663004
60.4122470000014,1.59318681318681
60.5081579999998,2.00095238095238
60.5890280000046,1.41025641025641
60.6677580000013,1.2829304029304
60.7478290000036,1.33934065934066
60.8281469999999,1.34336996336996
60.9076700000018,1.34498168498168
60.9896050000042,1.37479853479853
61.0683990000039,2.71575091575092
61.1475270000026,1.44571428571429
61.2241700000018,1.59399267399267
61.304513000004,2.09201465201465
61.3846459999979,1.36271062271062
61.4795150000006,1.34417582417582
61.5599900000021,1.40461538461538
61.6401920000017,1.43120879120879
61.7192089999989,1.50454212454212
61.7999699999988,1.61172161172161
61.8788350000009,1.63589743589744
61.9583369999975,1.51985347985348
62.0385380000025,1.61897435897436
62.1193460000008,1.83978021978022
62.1994629999995,1.95421245421245
62.2774039999992,1.32241758241758
62.3572330000028,1.35304029304029
62.4373690000027,1.36835164835165
62.5319650000036,1.42234432234432
62.6113929999992,1.47230769230769
62.6903280000016,1.47311355311355
62.7697330000028,2.58842490842491
62.8512150000036,1.42153846153846
62.9290810000002,1.54080586080586
63.0103550000042,2.01142857142857
63.0884360000044,1.3385347985348
63.1685179999992,1.33289377289377
63.2494329999983,1.41267399267399
63.3283189999983,1.44087912087912
63.4085289999992,1.49245421245421
63.5036160000041,1.59157509157509
63.5830520000011,1.56175824175824
63.6618020000011,1.45054945054945
63.7416860000044,1.55450549450549
63.8210799999982,1.86395604395604
63.901425999999,1.77934065934066
63.9805340000018,1.34820512820513
64.060436999999,1.38930402930403
64.1384140000045,1.38527472527473
64.2180480000004,1.44974358974359
64.3021679999977,1.47230769230769
64.3820839999989,1.48600732600733
64.4622920000032,1.99934065934066
64.5420480000004,1.45699633699634
64.6226609999984,1.56739926739927
64.7033540000022,2.01384615384615
64.7846970000044,1.38527472527473
64.8734179999977,1.27084249084249
64.9540150000006,1.31435897435897
65.035,1.37641025641026
65.1128920000046,1.43120879120879
65.1939650000036,1.48681318681319
65.2739760000035,1.53758241758242
65.3539980000034,1.58351648351648
65.4342650000006,1.56739926739927
65.514387000002,1.62783882783883
65.5939540000036,1.99369963369963
65.6739060000032,1.5174358974359
65.755675999999,1.3570695970696
65.8452760000005,1.44571428571429
65.9254769999981,1.48681318681319
66.0053610000014,1.52871794871795
66.0925780000016,1.56014652014652
66.1627430000007,1.5770695970696
66.2429039999992,1.57465201465201
66.3327810000032,1.5214652014652
66.4116480000019,1.56014652014652
66.492313000001,1.94454212454212
66.5720399999991,1.44490842490842
66.6525600000024,1.25311355311355
66.7353430000022,1.30630036630037
66.8152360000014,1.33289377289377
66.8945759999976,1.32
66.9735230000019,1.39494505494505
67.0587170000002,1.4247619047619
67.1399860000014,3.19362637362637
67.2193590000048,1.46747252747253
67.2993189999983,1.62139194139194
67.3797850000039,2.16454212454212
67.4611710000038,1.33208791208791
67.5399230000004,1.36996336996337
67.6197639999986,1.38769230769231
67.6995729999989,1.43362637362637
67.7802529999986,1.49809523809524
67.8600980000049,1.61897435897436
67.9518290000036,1.63106227106227
68.0313280000016,3.18153846153846
68.1100300000012,1.56820512820513
68.1898590000048,1.69230769230769
68.2725570000038,2.13472527472527
68.3509060000032,1.36835164835165
68.4312170000002,1.34498168498168
68.5117210000008,1.35545787545788
68.5920439999998,1.38446886446886
68.6723690000027,1.44410256410256
68.7537419999987,1.5029304029304
68.8347719999999,1.55289377289377
68.9131939999983,1.49003663003663
68.9933229999989,1.42315018315018
69.0825450000018,1.52307692307692
69.1570680000037,1.82930402930403
69.2373400000036,1.83172161172161
69.3270270000026,1.33611721611722
69.4073519999981,1.36754578754579
69.4871820000038,1.39333333333333
69.567438000001,1.45054945054945
69.6471000000015,1.50373626373626
69.7284230000004,1.51179487179487
69.8087260000035,3.20007326007326
69.8886279999986,1.58754578754579
69.9689399999976,1.71003663003663
70.0483189999983,2.18630036630037
70.1429310000017,1.33128205128205
70.2130289999992,1.33128205128205
70.2923030000031,1.36915750915751
70.3716799999997,1.40461538461538
70.4525249999985,1.43604395604396
70.5322049999982,1.49728937728938
70.6224090000019,1.50534798534799
70.6951359999999,2.1589010989011
70.776050999999,1.47794871794872
70.8561459999978,1.50937728937729
70.9461780000031,1.95018315018315
71.0275860000029,1.34820512820513
71.1058310000002,1.30388278388278
71.1890700000003,1.383663003663
71.2692159999982,1.40864468864469
71.3503830000013,1.46102564102564
71.4297690000013,1.52549450549451
71.5105989999995,1.59238095238095
71.6104010000005,1.53516483516484
71.6701670000032,1.56901098901099
71.7500839999989,1.59479853479853
71.8305289999992,1.97355311355311
71.910825000003,1.70197802197802
71.9911459999979,1.34820512820513
72.0800890000015,1.37802197802198
72.1573519999981,1.39978021978022
72.2359299999997,1.4167032967033
72.3212890000045,1.51421245421245
72.4021400000006,1.46424908424908
72.4833999999985,2.53523809523809
72.5628680000007,1.4989010989011
72.6426120000035,1.69714285714286
72.7230060000047,2.15809523809524
72.8028889999986,1.28212454212454
72.8833170000017,1.26117216117216
72.9643640000001,1.3159706959707
73.0440900000036,1.38285714285714
73.1246579999998,1.43362637362637
73.2130710000023,1.58271062271062
73.2928530000001,1.57304029304029
73.3730230000019,2.98168498168498
73.4534240000024,1.53838827838828
73.5348310000002,1.73985347985348
73.6138519999981,2.21128205128205
73.6938920000047,1.3425641025641
73.774925999999,1.38446886446886
73.854061999999,1.48117216117216
73.9345469999984,1.52952380952381
74.0147170000002,1.54725274725275
74.1046190000027,1.63267399267399
74.1920099999979,1.58271062271062
74.259987999998,1.58271062271062
74.3497920000032,1.56014652014652
74.4298969999999,1.81157509157509
74.5095029999986,1.92761904761905
74.590626000002,1.26600732600733
74.6696440000013,1.32161172161172
74.7480380000025,1.35384615384615
74.8257070000023,1.3385347985348
74.9050480000004,1.38124542124542
75.0013920000046,1.383663003663
75.0804830000028,3.1847619047619
75.1602239999995,1.46021978021978
75.2395970000029,1.60608058608059
75.3181220000014,2.1403663003663
75.3967199999988,1.32241758241758
75.4778320000023,1.32564102564103
75.5540820000023,1.39252747252747
75.6491520000026,1.41831501831502
75.7290139999986,1.4803663003663
75.8091400000006,1.59399267399267
75.8877340000048,1.60285714285714
75.9679820000008,3.10498168498168
76.0489230000004,1.57384615384615
76.1265780000016,1.74710622710623
76.2057180000022,2.22981684981685
76.2823210000023,1.30549450549451
76.3718500000015,1.34417582417582
76.4525040000007,1.36673992673993
76.5324289999977,1.41025641025641
76.6123170000017,1.46021978021978
76.692762000002,1.56739926739927
76.7732560000047,1.53032967032967
76.8531099999994,1.42798534798535
76.9334640000015,1.46586080586081
77.014013000004,1.70278388278388
77.0935649999976,2.00417582417582
77.1730469999984,1.30468864468864
77.256436999999,1.37238095238095
77.3368669999987,1.41912087912088
77.4161140000001,1.46586080586081
77.4961070000008,1.4989010989011
77.5769160000011,1.54725274725275
77.6668090000004,1.5770695970696
77.7474890000001,3.18717948717949
77.8271560000032,1.58915750915751
77.9076490000039,1.80915750915751
77.9877180000022,2.25721611721612
78.0679769999981,1.38043956043956
78.147263000004,1.39575091575092
78.2285869999975,1.39655677655678
78.3128590000048,1.42879120879121
78.3914910000041,1.53113553113553
78.4730520000011,1.59641025641026
78.553262000002,1.65684981684982
78.6330390000045,1.56659340659341
78.7158770000041,1.5851282051282
78.7956750000045,1.95018315018315
78.873824000001,1.33934065934066
78.9538449999988,1.20959706959707
79.0348409999982,1.28454212454212
79.1241389999986,1.33289377289377
79.2078889999986,1.40058608058608
79.283938000001,1.53113553113553
79.3625740000009,1.50212454212454
79.4433590000048,1.40864468864469
79.523075000003,1.54967032967033
79.6024849999994,1.80754578754579
79.6845450000018,1.91956043956044
79.7634910000041,1.32805860805861
79.8438489999995,1.41267399267399
79.9340579999983,1.44652014652015
80.0146979999989,1.476336996337
80.0932700000033,1.52791208791209
80.1741310000047,1.51501831501831
80.2548519999981,3.19846153846154
80.3320209999979,1.50857142857143
80.4108920000047,1.66490842490842
80.5070040000006,2.1589010989011
80.5858889999986,1.30871794871795
80.6663550000042,1.33531135531136
80.747061999999,1.37399267399267
80.8260289999992,1.36593406593407
80.9059769999981,1.39494505494505
80.9874470000044,1.50857142857143
81.0665949999988,1.50776556776557
81.1458489999995,1.42717948717949
81.2259640000016,1.55208791208791
81.3064970000014,1.8607326007326
81.3853610000014,1.79545787545788
81.462436999999,1.33531135531136
81.5573090000004,1.37318681318681
81.636950000003,1.39655677655678
81.7171070000008,1.41912087912088
81.7969460000023,1.46989010989011
81.8763440000042,1.58835164835165
81.9564340000004,1.56095238095238
82.0373669999987,1.61172161172161
82.1173510000035,1.99692307692308
82.1968610000014,1.40461538461538
82.2840109999999,1.28051282051282
82.3615249999985,1.34820512820513
82.4415700000003,1.39333333333333
82.523512000002,1.43604395604396
82.6028800000027,1.50937728937729
82.6838859999999,1.49728937728938
82.7630340000019,3.16380952380952
82.8433420000002,1.47311355311355
82.9237740000039,1.63186813186813
83.0033669999987,2.12344322344322
83.0837470000014,1.30549450549451
83.1631180000007,1.33611721611722
83.2494010000005,1.40058608058608
83.3261899999976,1.43282051282051
83.4055450000018,1.49809523809524
83.4864720000029,1.62945054945055
83.5770680000037,1.61252747252747
83.6568079999983,1.60124542124542
83.7389790000021,1.57787545787546
83.8184970000014,1.82285714285714
83.8985280000046,2.07992673992674
83.9790850000009,1.37721611721612
84.058737999998,1.39252747252747
84.1387550000027,1.4021978021978
84.2190280000046,1.43040293040293
84.3062760000005,1.51985347985348
84.3856530000046,1.50695970695971
84.4637550000027,1.4021978021978
84.5432320000008,1.53032967032967
84.6231090000048,1.79868131868132
84.7041789999977,1.74549450549451
84.7840680000037,1.28937728937729
84.8791930000037,1.29421245421245
84.9579109999984,1.34175824175824
85.0375230000019,1.38043956043956
85.1204680000022,1.46263736263736
85.2004769999981,1.53113553113553
85.2784629999995,2.89465201465201
85.3588559999988,1.47875457875458
85.438689000003,1.62139194139194
85.5177239999995,2.07750915750916
85.599186999999,1.32805860805861
85.6777929999977,1.34417582417582
85.756813000001,1.38285714285714
85.8374900000021,1.46344322344322
85.9162920000032,1.55531135531136
86.0132049999982,1.58029304029304
86.0932060000002,1.56659340659341
86.1722150000036,2.4385347985348
86.2526640000045,1.5359706959707
86.3288610000014,1.63589743589744
86.4091590000018,2.05252747252747
86.4901090000048,1.36432234432234
86.5698910000026,1.34175824175824
86.6507330000028,1.39010989010989
86.731876000002,1.41831501831502
86.8115260000005,1.44249084249084
86.8912410000041,1.45054945054945
86.9708680000007,1.60849816849817
87.050824000001,1.54725274725275
87.1318449999988,1.48520146520147
87.2116590000018,1.51663003663004
87.3096400000006,1.76080586080586
87.3794280000031,1.85106227106227
87.4602850000039,1.29260073260073
87.539800999999,1.36029304029304
87.6198840000033,1.40864468864469
87.6998020000011,1.42959706959707
87.781063000001,1.49567765567766
87.8609050000012,1.63186813186813
87.9405179999992,1.59318681318681
88.0317110000029,1.53032967032967
88.1109870000035,1.59238095238095
88.1909069999978,1.84380952380952
88.2711810000017,1.78336996336996
88.346638000004,1.32483516483516
88.4265160000026,1.34820512820513
88.5067660000026,1.39252747252747
88.596824000001,1.43765567765568
88.6765700000003,1.48923076923077
88.7582580000013,1.52791208791209
88.8383980000019,1.49728937728938
88.9183770000041,3.15978021978022
88.9985949999988,1.47391941391941
89.0778920000047,1.65443223443223
89.1577480000034,2.14681318681319
89.2385700000003,1.35304029304029
89.3264280000031,1.3981684981685
89.4057679999992,1.42315018315018
89.486936999999,1.46344322344322
89.566813000001,1.53758241758242
89.6465040000007,1.61978021978022
89.7274780000001,1.58271062271062
89.8073519999981,1.66007326007326
89.8873060000017,1.59882783882784
89.9681340000033,1.823663003663
90.0470340000018,1.9840293040293
90.1349980000034,1.32322344322344
90.2124240000024,1.36190476190476
90.293938000001,1.37318681318681
90.3738810000047,1.41106227106227
90.4540380000025,1.4618315018315
90.5323299999982,1.47472527472527
90.6137150000036,3.18717948717949
90.7099959999994,1.50212454212454
90.7875390000045,1.63106227106227
90.8680319999978,2.02754578754579
90.9474140000045,1.29582417582418
91.0286110000014,1.33047619047619
91.108061999999,1.34739926739927
91.1872859999985,1.39494505494505
91.2671960000023,1.43846153846154
91.3454710000008,1.5625641025641
91.4251979999989,1.51904761904762
91.5048350000009,1.42798534798535
91.5855989999995,1.54241758241758
91.6787870000005,1.75758241758242
91.7559820000008,2.02835164835165
91.8357709999978,1.35223443223443
91.9174840000048,1.45377289377289
91.9934420000017,1.45054945054945
92.0717679999992,1.47794871794872
92.1517920000032,1.51098901098901
92.2460329999998,1.58271062271062
92.3257480000034,1.48278388278388
92.4040500000045,1.55450549450549
92.4836560000032,1.5770695970696
92.5638280000016,1.84139194139194
92.6438290000036,1.62461538461538
92.7251750000045,1.34739926739927
92.8051920000017,1.35787545787546
92.8845790000036,1.32564102564103
92.9647220000029,1.36351648351648
93.0443559999987,1.45377289377289
93.1255060000047,1.49003663003663
93.2050080000013,1.50212454212454
93.2852400000021,1.54
93.3701810000017,1.5956043956044
93.451387000002,1.9203663003663
93.5857040000036,1.50615384615385
93.7296440000013,1.35062271062271
93.8024430000037,1.383663003663
93.8445139999986,1.42879120879121
93.9083900000006,1.53919413919414
93.9531960000023,1.6221978021978
94.0232740000039,1.58673992673993
94.1027599999979,1.43846153846154
94.1826349999979,1.57223443223443
94.2628440000042,1.89699633699634
94.3409509999976,1.59238095238095
94.4207070000023,1.25472527472527
94.5008489999995,1.31838827838828
94.5805020000041,1.36835164835165
94.6756590000018,1.44410256410256
94.755013000004,1.60285714285714
94.835811999999,1.73179487179487
94.9150860000029,1.54805860805861
94.9953470000029,1.57384615384615
95.0751330000013,1.87846153846154
95.1551070000008,1.27728937728938
95.2352760000005,1.16124542124542
95.3155850000009,1.2974358974359
95.3931230000034,1.39091575091575
95.4710520000011,1.45054945054945
95.5510340000018,1.47472527472527
97.041075000003,1.92520146520147
97.0820820000023,1.50534798534799
97.1282609999999,1.61494505494505
97.1804079999998,2.12747252747253
97.2376290000007,1.52710622710623
97.2869060000032,1.44087912087912
97.3260670000017,1.44813186813187
97.3902360000014,1.42153846153846
97.4438700000048,1.48923076923077
97.4801330000013,1.60124542124542
97.5088590000048,1.52307692307692
97.5346740000024,1.30549450549451
97.5601169999987,1.50454212454212
97.5861510000005,1.8567032967033
97.6125069999993,2.06461538461538
97.6377939999998,1.40945054945055
97.6632899999991,1.29663003663004
97.6888920000046,1.32241758241758
97.7158510000035,1.29340659340659
97.7418350000009,1.38608058608059
97.7676270000041,1.51340659340659
97.7952789999992,1.69553113553114
97.8236010000035,3.17831501831502
97.852873999998,1.476336996337
97.8818709999994,1.67135531135531
97.912237999998,2.14923076923077
97.943498999998,1.34417582417582
97.9708640000001,1.35142857142857
98.0024039999992,1.54886446886447
98.0307230000049,1.5029304029304
98.071700000003,1.55611721611722
98.1521400000006,1.50454212454212
98.2341950000003,1.43523809523809
98.3111200000048,3.0389010989011
98.3905480000004,1.50534798534799
98.4695850000009,1.54886446886447
98.5663430000022,2.05010989010989
98.6430310000032,1.36996336996337
98.7226789999977,1.36432234432234
98.7989430000037,1.40380952380952
98.879064000003,1.38769230769231
98.9564670000002,1.41912087912088
99.0365230000019,1.48197802197802
99.1170340000019,1.54241758241758
99.1966160000041,1.48197802197802
99.275501000002,1.54161172161172
99.3719890000001,1.59641025641026
99.4530310000032,1.92117216117216
99.530324000001,1.58432234432234
99.6058280000016,1.34739926739927
99.6843969999999,1.38930402930403
99.763013000004,1.41509157509157
99.8559680000022,1.49084249084249
99.9358519999981,1.57384615384615
100.013325000003,1.57384615384615
100.091432999998,1.71245421245421
100.167410999998,1.5440293040293
100.247656000003,1.58271062271062
100.343627999999,1.95985347985348
100.423498000003,1.43846153846154
100.502159000002,1.31113553113553
100.581350000001,1.34981684981685
100.659272,1.38124542124542
100.737392999999,1.43604395604396
100.816092,1.47553113553114
100.896395999998,1.41992673992674
100.976232000001,2.20322344322344
101.070899000004,1.45377289377289
101.150281000003,1.58996336996337
101.231182999998,2.00659340659341
101.310681000002,1.40139194139194
101.390967,1.33128205128205
101.470182999998,1.38930402930403
101.550550000004,1.44087912087912
101.628638000004,1.48117216117216
101.709417999998,1.52952380952381
101.788145999998,1.52549450549451
101.868035999998,3.19443223443223
101.948696000002,1.62542124542125
102.044605000004,1.74871794871795
102.124255000003,2.19838827838828
102.203973999999,1.33369963369963
102.283414999999,1.35142857142857
102.361517000005,1.39575091575092
102.441028000005,1.41347985347985
102.520539999999,1.4578021978022
102.599611000001,1.54644688644689
102.680620999999,1.5214652014652
102.759384000003,1.45860805860806
102.839075999998,1.51340659340659
102.935226000004,1.76080586080586
103.015506000005,1.79062271062271
103.095252000004,1.29340659340659
103.175141000003,1.35465201465201
103.256421000004,1.40783882783883
103.335509000003,1.45538461538462
103.415082000002,1.56336996336996
103.493460000001,1.55531135531136
103.573368000001,1.45619047619048
103.651403000005,1.54886446886447
103.731859999999,1.83333333333333
103.811729000002,1.76967032967033
103.891972000003,1.38930402930403
103.987884000003,1.42637362637363
104.068289000005,1.43684981684982
104.148358000003,1.4618315018315
104.227806000002,1.4989010989011
104.307405000001,1.50373626373626
104.388116000004,3.1952380952381
104.467022,1.49326007326007
104.545364,1.67296703296703
104.623223999999,2.13956043956044
104.704244000003,1.27406593406593
104.783730999999,1.33128205128205
104.863075999998,1.30871794871795
104.958129000001,1.36029304029304
105.038343000002,1.42717948717949
105.117542000003,1.4578021978022
105.196583000004,3.19120879120879
105.275958000004,1.50776556776557
105.357603,1.64717948717949
105.437932999998,2.15406593406593
105.515707000002,1.33369963369963
105.594491999999,1.35626373626374
105.672811000004,1.39575091575092
105.766671999998,1.42234432234432
105.845848000005,1.52307692307692
105.926090000004,1.66007326007326
106.004733000003,1.60124542124542
106.085463,1.50131868131868
106.165729000002,1.62783882783883
106.243730000004,1.91875457875458
106.322921999998,1.7374358974359
106.402947000004,1.33692307692308
106.496153000005,1.35465201465201
106.573673,1.40461538461538
106.653524000004,1.42234432234432
106.733153000005,1.50131868131868
106.810119000003,1.41025641025641
106.889719000004,1.33208791208791
106.967854000002,1.44813186813187
107.064946000002,1.84542124542125
107.144094999999,1.49970695970696
107.224553999998,1.27003663003663
107.304553999998,1.33047619047619
107.384748000003,1.39413919413919
107.462353,1.45135531135531
107.540864,1.50373626373626
107.620170000002,1.51421245421245
107.701046999998,3.20087912087912
107.780208999999,1.52630036630037
107.860193999998,1.72615384615385
107.941031999998,2.2821978021978
108.019925999999,1.38043956043956
108.114050000004,1.37802197802198
108.194024999999,1.40058608058608
108.273857000001,1.43201465201465
108.353460000001,1.46344322344322
108.434880000003,1.56498168498168
108.511675000004,1.53516483516484
108.590733000003,1.4843956043956
108.669090000004,1.5359706959707
108.764079000004,1.78820512820513
108.843898000002,1.90989010989011
108.923473999999,1.2603663003663
109.001842,1.31274725274725
109.080854000002,1.39333333333333
109.159601999998,1.43846153846154
109.239338,1.51340659340659
109.317923,1.51904761904762
109.398112999998,3.1952380952381
109.491252000004,1.50454212454212
109.570984999999,1.69391941391941
109.651509999998,2.22578754578755
109.731281000003,1.28131868131868
109.810442000002,1.3014652014652
109.890441,1.41267399267399
109.969571000002,1.44007326007326
110.048439999998,1.46424908424908
110.128004000001,1.54241758241758
110.207681000002,1.49326007326007
110.302869000003,1.41267399267399
110.383261,1.53758241758242
110.462557999998,1.81318681318681
110.542436000004,1.77450549450549
110.622954000004,1.3014652014652
110.702833000004,1.32322344322344
110.782101000004,1.39010989010989
110.860542999998,1.42959706959707
110.941272,1.4618315018315
111.019325000003,1.52871794871795
111.099618000001,1.47311355311355
111.179848000005,1.56659340659341
111.273651000001,1.58271062271062
111.352432000004,1.91794871794872
111.432784000002,1.60608058608059
111.512594000004,1.3610989010989
111.592189000003,1.4207326007326
111.672557999998,1.44732600732601
111.750366999999,1.47714285714286
111.831020999998,1.57384615384615
111.910539999999,1.58996336996337
111.991283,3.18556776556777
112.069542999998,1.5359706959707
112.164142000005,1.71809523809524
112.244052000001,2.22336996336996
112.322061999999,1.24666666666667
112.401932999998,1.28373626373626
112.481942000002,1.33934065934066
112.560888000004,1.3651282051282
112.640316,1.43040293040293
112.720233000003,1.46344322344322
112.799461000003,2.88981684981685
112.879416000001,1.39091575091575
112.959901000001,1.55934065934066
113.055903999999,2.07912087912088
113.136164000005,1.29904761904762
113.216149000004,1.31032967032967
113.295903000005,1.3796336996337
113.375023000002,1.4247619047619
113.454989,1.47230769230769
113.534862000003,1.52307692307692
113.610994000003,1.54967032967033
113.690006999999,3.18879120879121
113.770805,1.53355311355311
113.865902000003,1.73904761904762
113.943534000002,2.2596336996337
114.023487000003,1.37157509157509
114.103263000004,1.41912087912088
114.184196000002,1.44249084249084
114.260943999998,1.46827838827839
114.33707,1.51340659340659
114.417039999999,1.58271062271062
114.512075999998,1.55289377289377
114.590563000001,1.47391941391941
114.670726999998,1.62783882783883
114.750465000004,1.92923076923077
114.829520000003,1.68908424908425
114.909403999999,1.20717948717949
114.989336999997,1.26278388278388
115.06882,1.29340659340659
115.147660999998,1.37238095238095
115.227241999999,1.38930402930403
115.322616999999,2.59084249084249
115.400353,1.45538461538462
115.479498000003,1.58673992673993
115.559623000003,2.0847619047619
115.637704000004,1.33772893772894
115.716689000003,1.32322344322344
115.796506999999,1.37641025641026
115.874392000005,1.48197802197802
115.969829999998,1.52791208791209
116.049441,1.58271062271062
116.129236000001,1.4618315018315
116.209145999998,1.53516483516484
116.288270000003,1.56578754578755
116.367998000003,1.93245421245421
116.445923,1.52549450549451
116.525178000003,1.35223443223443
116.604957000002,1.34498168498168
116.683936000004,1.39252747252747
116.776182000004,1.4618315018315
116.856359999999,1.47956043956044
116.936189000003,1.45860805860806
117.014765000001,3.21377289377289
117.094501000002,1.48600732600733
117.173519000001,1.67619047619048
117.251321000002,2.20564102564103
117.348052000001,1.33450549450549
117.427868000001,1.35304029304029
117.505090000004,1.4021978021978
117.584691,1.44571428571429
117.663013000004,1.54805860805861
117.742634000003,1.51421245421245
117.822578000002,1.47311355311355
117.904333999999,1.57142857142857
117.983442000002,1.823663003663
118.063609999999,1.79545787545788
118.142059,1.32483516483516
118.235475000001,1.35787545787546
118.311726000004,1.3796336996337
118.391868000001,1.42153846153846
118.472836000003,1.47391941391941
118.552836999997,1.49487179487179
118.642778000005,3.18798534798535
118.71382,1.50534798534799
118.792770000003,1.69714285714286
118.872715000004,2.12102564102564
118.952923,1.26520146520147
119.033699000001,1.31355311355311
119.112697000004,1.35384615384615
119.202456,1.41106227106227
119.282230999999,1.48197802197802
119.362300000004,1.57948717948718
119.443178000003,1.55369963369963
119.523781000003,1.48923076923077
119.605517999999,1.56095238095238
119.688588,1.84300366300366
119.769958999999,1.74791208791209
119.850192000002,1.3796336996337
119.930082000002,1.43684981684982
120.010311000004,1.43684981684982
120.089873000003,1.47391941391941
120.169305,1.52791208791209
120.249678999998,1.59318681318681
120.332691,1.55047619047619
120.412767999999,1.476336996337
120.492202,1.55611721611722
120.572350000001,1.83413919413919
120.651328000002,1.76322344322344
120.746181000002,1.32241758241758
120.824361000001,1.36673992673993
120.904178000003,1.35304029304029
120.982913000002,1.39494505494505
121.061403999999,1.52871794871795
121.143245999999,1.51340659340659
121.221965000004,1.59479853479853
121.301405000001,1.51904761904762
121.395158,1.77450549450549
121.474193000004,1.91150183150183
121.554956,1.29824175824176
121.636030000001,1.37399267399267
121.713883000001,1.4167032967033
121.792555,1.44410256410256
121.871211999997,1.52549450549451
121.949704000004,1.5440293040293
122.029024999999,1.88732600732601
122.109427000001,1.51501831501831
122.189995999999,1.5956043956044
122.272469999999,1.99289377289377
122.352585000001,1.39413919413919
122.441120000005,1.33772893772894
122.522138000004,1.36432234432234
122.602682000004,1.41106227106227
122.692098999999,1.44410256410256
122.764546999998,1.48278388278388
122.843873000003,1.47956043956044
122.923273000002,3.1952380952381
123.003192000002,1.48600732600733
123.082982000001,1.64234432234432
123.163473000005,2.13230769230769
123.243831,1.33208791208791
123.323494000003,1.36835164835165
123.414546999998,1.41267399267399
123.495814999998,1.45216117216117
123.574006999999,1.50857142857143
123.655435000002,1.60608058608059
123.729445,1.56820512820513
123.819311999999,1.6592673992674
123.898726999998,1.61494505494505
123.977877000004,1.83655677655678
124.059203000002,2.03157509157509
124.138653000005,1.33611721611722
124.218980000004,1.37399267399267
124.304642000005,1.39897435897436
124.378544,1.4021978021978
124.471644000001,1.45054945054945
124.551855000004,1.45135531135531
124.629585000001,3.18798534798535
124.709947000004,1.48600732600733
124.788039000005,1.60285714285714
124.868568000004,2.05172161172161
124.948085000001,1.2643956043956
125.024439000003,1.29018315018315
125.104953000002,1.35384615384615
125.200544,1.40703296703297
125.280586000003,1.44007326007326
125.356772,1.58029304029304
125.437564000003,1.52871794871795
125.517236000001,2.12666666666667
125.597122000001,1.53919413919414
125.676394000001,1.72857142857143
125.756392000005,2.13230769230769
125.838267999999,1.33047619047619
125.916520000003,1.42153846153846
126.009545000002,1.45619047619048
126.088564000003,1.48197802197802
126.168388999999,1.51582417582418
126.246593000002,1.61494505494505
126.321865000002,1.55450549450549
126.401964000002,1.60527472527473
126.482883000001,1.54886446886447
126.562729000002,1.77934065934066
126.642707000002,2.00014652014652
126.741656999998,1.31435897435897
126.811090999998,1.36271062271062
126.890968000002,1.33692307692308
126.970994000003,1.37157509157509
127.051060000002,1.44249084249084
127.131204000004,1.4392673992674
127.211502000004,2.70527472527472
127.291703000002,1.47956043956044
127.371457000002,1.6778021978022
127.452446000002,2.11538461538462
127.542531999998,1.2829304029304
127.622590000004,1.34175824175824
127.704313000001,1.40380952380952
127.778480000004,1.45216117216117
127.858366999999,1.52791208791209
127.938226999998,1.63428571428571
128.028322999999,1.5956043956044
128.109111000001,1.48600732600733
128.189675000004,1.57626373626374
128.273677000001,1.83091575091575
128.352300000004,1.80996336996337
128.43,1.31032967032967
128.509917999998,1.37157509157509
128.589652000003,1.40461538461538
128.669281999998,1.44732600732601
128.748833000004,1.49003663003663
128.828984000005,1.59076923076923
128.923958999999,1.4989010989011
129.003925999999,1.41347985347985
129.084745999999,1.53113553113553
129.165137000002,1.83091575091575
129.241258000001,1.73098901098901
129.320254000001,1.32
129.399914000005,1.38124542124542
129.492199000001,1.40300366300366
129.572122000001,1.45699633699634
129.652766000003,1.56820512820513
129.733064000003,1.51824175824176
129.810458000004,1.55208791208791
129.889287,1.57142857142857
129.969267000005,1.80190476190476
130.048633000001,1.98805860805861
130.129245999999,1.3159706959707
130.208494000003,1.36754578754579
130.288134000003,1.41106227106227
130.368438000001,1.42556776556777
130.461961000003,1.45941391941392
130.539829000004,1.54241758241758
130.619402000003,1.54322344322344
130.700675999999,1.50534798534799
130.777428000003,1.54805860805861
130.855737000003,1.81882783882784
130.934791000001,1.68424908424908
131.026465000004,1.28454212454212
131.105225000001,1.34901098901099
131.185862999998,1.41750915750916
131.264728,1.46344322344322
131.344278999999,1.52549450549451
131.424039999999,1.56417582417582
131.503883000001,1.52227106227106
131.583715000004,1.57384615384615
131.677748000003,1.62139194139194
131.756821000002,1.99692307692308
131.834614,1.56498168498168
131.915175000004,1.37802197802198
131.99393,1.43120879120879
132.073848000005,1.46666666666667
132.153594000004,1.47875457875458
132.234206,1.51501831501831
132.311892999999,1.43362637362637
132.391675999999,1.46989010989011
132.472905000001,1.52388278388278
132.562664999999,1.89699633699634
132.643751000002,1.45457875457875
132.723794,1.26358974358974
132.801489,1.31838827838828
132.881968000002,1.30871794871795
132.961897,1.3610989010989
133.040730999999,1.42315018315018
133.121126000002,1.4618315018315
133.200917999998,2.77860805860806
133.290884000003,1.476336996337
133.371520999998,1.62300366300366
133.452572999999,2.1218315018315
133.532557999998,1.38688644688645
133.612442000002,1.37318681318681
133.692586000003,1.44490842490842
133.774513000004,1.46747252747253
133.858096000001,1.53919413919414
133.937983000003,1.63750915750916
134.018909000002,1.60446886446886
134.098590999998,1.44571428571429
134.178726999998,1.5851282051282
134.257958999999,1.88410256410256
134.345039999999,1.66168498168498
134.424846000001,1.25230769230769
134.503990000002,1.30791208791209
134.584416000001,1.34981684981685
134.666140000001,1.383663003663
134.743281000003,1.46344322344322
134.823403000005,1.47069597069597
134.902261,3.20249084249084
134.983149000004,1.42798534798535
135.077213,1.603663003663
135.158394000001,2.13956043956044
135.237669,1.29501831501831
135.316740000002,1.32725274725275
135.394776000001,1.38930402930403
135.474726000004,1.43120879120879
135.550941,1.48600732600733
135.643465000004,1.59399267399267
135.721715999998,1.53274725274725
135.800703000002,1.72212454212454
135.877421000004,1.58432234432234
135.956082000002,1.80754578754579
136.035950999998,2.15487179487179
136.116416000001,1.36029304029304
136.210368000001,1.40703296703297
136.281987000003,1.44893772893773
136.363247000001,1.44571428571429
136.443145000003,1.48681318681319
136.523987999998,1.48278388278388
136.603953000002,3.1767032967033
136.683215000004,1.45216117216117
136.765011,1.63428571428571
136.857505000003,2.15003663003663
136.928880000003,1.25311355311355
137.007976999998,1.27567765567766
137.087938000001,1.32161172161172
137.177229000002,1.36996336996337
137.257758000001,1.42637362637363
137.338327,1.46666666666667
137.418226999998,2.25238095238095
137.499327,1.50776556776557
137.578961000003,1.60608058608059
137.658030000001,2.05333333333333
137.738813000001,1.35142857142857
137.822553999998,1.33611721611722
137.898770000003,1.42879120879121
137.978734000005,1.49084249084249
138.068038000003,1.54483516483516
138.148192000002,1.56417582417582
138.227311999999,1.56739926739927
138.311611000001,3.19765567765568
138.391333000004,1.54967032967033
138.472186999999,1.72615384615385
138.552119000003,2.21531135531136
138.632785000004,1.28695970695971
138.713243000001,1.33208791208791
138.792343000002,1.35384615384615
138.875098000005,1.33208791208791
138.956416000001,1.3610989010989
139.036329999998,1.46989010989011
139.116978,1.45135531135531
139.197447000004,1.46908424908425
139.275759999998,1.54161172161172
139.355383000001,1.8647619047619
139.435355000004,1.60930402930403
139.525902000003,1.31194139194139
139.605870999999,1.36915750915751
139.686059,1.45054945054945
139.767348999999,1.46344322344322
139.846636,1.50212454212454
139.930718000002,1.60527472527473
140.011068999998,1.59157509157509
140.090932000004,3.19362637362637
140.171469000004,1.55934065934066
140.251347000003,1.71648351648352
140.334873000003,2.17904761904762
140.414931000002,1.31838827838828
140.494509999998,1.35545787545788
140.573842,1.38527472527473
140.653509000003,1.40380952380952
140.733660000004,1.47311355311355
140.814186000004,1.53032967032967
140.893402000003,1.49970695970696
140.989535000004,1.68344322344322
141.069013999999,1.52388278388278
141.147215999998,1.5956043956044
141.226638000004,2.01868131868132
141.307343000002,1.45216117216117
141.386413000003,1.33611721611722
141.467663000003,1.36835164835165
141.544196000002,1.38043956043956
141.622876000002,1.42153846153846
141.703020000003,1.51663003663004
141.799986000001,1.4989010989011
141.878001000002,1.44410256410256
141.957155000001,1.60205128205128
142.037104000002,1.87604395604396
142.115795000002,1.7374358974359
142.193950000003,1.33128205128205
142.271248000003,1.34901098901099
142.365931000002,1.38043956043956
142.447046000004,1.42234432234432
142.526524999999,1.49003663003663
142.603550000004,1.48358974358974
142.682522,3.19120879120879
142.762240000002,1.49164835164835
142.844072000004,1.6181684981685
142.923009999998,2.04688644688645
143.002586999998,1.2829304029304
143.081408,1.29098901098901
143.174522,1.37479853479853
143.255217,1.41347985347985
143.334292000003,1.45457875457875
143.413028999999,1.51018315018315
143.491130000003,1.51824175824176
143.571818999998,2.59406593406593
143.651564999998,1.52871794871795
143.732487000003,1.71164835164835
143.811028000005,2.15326007326007
143.890537,1.37076923076923
143.969870999999,1.42153846153846
144.065269000001,1.44813186813187
144.144886,1.49809523809524
144.225354000002,1.4989010989011
144.305795000002,1.56981684981685
144.384222000003,1.53677655677656
144.462824000001,1.48117216117216
144.540870000005,1.55369963369963
144.618658,1.8196336996337
144.713721000001,1.82769230769231
144.791052000001,1.34095238095238
144.869851999998,1.35787545787546
144.948851999998,1.33289377289377
145.027484999999,1.36673992673993
145.107620000005,1.476336996337
145.188439999998,1.47714285714286
145.268221000001,1.37802197802198
145.347535000004,1.55450549450549
145.427495999999,1.85106227106227
145.521954999998,1.65765567765568
145.602379000001,1.33128205128205
145.681636,1.3796336996337
145.760936999999,1.41186813186813
145.839461000003,1.47311355311355
145.920450999998,1.61413919413919
146.000366000004,1.55208791208791
146.081291000001,2.48285714285714
146.160325000003,1.52549450549451
146.238656000003,1.70520146520147
146.332822999999,2.10732600732601
146.412218000002,1.32644688644689
146.491920000002,1.38527472527473
146.57082,1.40542124542125
146.652122000001,1.42879120879121
146.730125,1.54
146.809359999999,1.51260073260073
146.888375,1.72051282051282
146.967653999999,1.46505494505495
147.061480999999,1.70197802197802
147.140322999999,2.04205128205128
147.218406000003,1.27487179487179
147.298350000001,1.33531135531136
147.377825999998,1.38124542124542
147.457644000001,1.42234432234432
147.537090000004,1.51663003663004
147.616848999999,1.47472527472527
147.695519000001,1.41992673992674
147.791314999998,1.52710622710623
147.870094000004,1.85912087912088
147.950291000001,1.75113553113553
148.030497000001,1.37238095238095
148.110377000004,1.40058608058608
148.188346000001,1.41267399267399
148.276164999999,1.44652014652015
148.342182000004,1.55047619047619
148.431726999998,1.52307692307692
148.512344000004,1.41589743589744
148.592520999998,1.52388278388278
148.674811999999,1.75113553113553
148.752406000003,1.80512820512821
148.832636,1.29663003663004
148.912578000002,1.31758241758242
148.992122000001,1.35787545787546
149.070730000004,1.43846153846154
149.160644000001,1.57787545787546
149.240480999999,1.5440293040293
149.321388999999,1.60205128205128
149.401370000005,1.57868131868132
149.482412,1.86637362637363
149.56218,2.01304029304029
149.641755000003,1.29260073260073
149.723226999998,1.35787545787546
149.803691,1.35787545787546
149.883096000001,1.44652014652015
149.964244000003,1.56336996336996
150.047759999998,1.48520146520147
150.127774000004,1.59479853479853
150.208784000002,1.63912087912088
150.291504000001,1.96468864468864
150.368713,1.57142857142857
150.447855000004,1.31113553113553
150.527693999998,1.34739926739927
150.623024999999,1.39252747252747
150.703533,1.42879120879121
150.783358000003,1.56981684981685
150.864983000003,1.48681318681319
150.943336000003,1.33611721611722
151.023303999998,1.50212454212454
151.103438000001,1.72776556776557
151.183217,1.84703296703297
151.262941,1.35787545787546
151.342789999999,1.30871794871795
151.423019000001,1.42153846153846
151.502182999998,1.46908424908425
151.582302000001,1.39494505494505
151.662559,1.52871794871795
151.756873999998,1.42315018315018
151.836866999999,1.39655677655678
151.916829999998,1.72454212454212
151.997810000002,1.94937728937729
152.077399999999,1.95421245421245
152.157456,1.38688644688645
152.235064000003,1.41106227106227
152.314976999998,1.35062271062271
152.393686000004,1.28131868131868
152.473803000003,1.53113553113553
152.554708999999,1.57868131868132
152.649739,1.49406593406593
152.728101999998,1.58835164835165
152.807314999998,1.61736263736264
152.888241000004,1.95663003663004
152.967167999998,1.54483516483516
153.048226999998,1.3240293040293
153.128185000002,1.36271062271062
153.208042999998,1.34820512820513
153.287831,1.41186813186813
153.367397,1.40864468864469
153.447721000001,3.19765567765568
153.527734000005,1.47311355311355
153.605814999998,1.62300366300366
153.701254000001,2.14600732600733
153.781660000004,1.30630036630037
153.860590000004,1.3425641025641
153.940311000004,1.44732600732601
154.020615000002,1.46344322344322
154.100127000004,1.51501831501831
154.179097000003,1.50212454212454
154.258991999999,3.23311355311355
154.339122000001,1.52468864468864
154.416397,1.64798534798535
154.510593000002,2.10974358974359
154.589321000002,1.35465201465201
154.668428000003,1.3385347985348
154.747105999999,1.37721611721612
154.825217,1.42879120879121
154.902656999998,1.46989010989011
154.994395999998,1.47069597069597
155.074609999999,2.25882783882784
155.155362999998,1.50454212454212
155.235980999999,1.71326007326007
155.314678999998,2.09201465201465
155.393916000001,1.35304029304029
155.471302000001,1.39736263736264
155.551388999999,1.41509157509157
155.630186999999,1.45699633699634
155.723311999999,1.58271062271062
155.803585000001,1.5625641025641
155.882903999999,1.49567765567766
155.963280000001,1.67941391941392
156.040876000002,1.92197802197802
156.121755000003,1.82527472527473
156.201104000002,1.41428571428571
156.281498999998,1.40864468864469
156.359876000002,1.38688644688645
156.439122000001,1.45860805860806
156.533778000005,1.41912087912088
156.614755000003,1.29985347985348
156.692629000001,1.4843956043956
156.770984999999,1.78095238095238
156.851112999998,1.52388278388278
156.931695,1.22087912087912
157.010491999999,1.30630036630037
157.087931000002,1.36029304029304
157.183413000003,1.49970695970696
157.260012000002,1.48923076923077
157.338491000004,1.3796336996337
157.418894000001,1.54725274725275
157.499960000001,1.83494505494505
157.579789999999,1.78901098901099
157.656651000001,1.36835164835165
157.735726000004,1.41025641025641
157.816366999999,1.40139194139194
157.911434,1.5440293040293
157.989795000002,1.53032967032967
158.070086000003,1.44007326007326
158.148734000005,1.54967032967033
158.228173,1.83333333333333
158.301365000002,1.61172161172161
158.381653000005,1.29098901098901
158.462961999998,1.35384615384615
158.552909000002,1.39978021978022
158.633417000003,1.48600732600733
158.714542999998,1.44893772893773
158.793795000002,1.4021978021978
158.873677000001,1.51098901098901
158.954653999999,1.77772893772894
159.034340000004,1.54725274725275
159.113335000001,1.30065934065934
159.199910000004,1.36835164835165
159.280377000004,1.40058608058608
159.360509999998,1.53355311355311
159.440877000004,1.50695970695971
159.521958999999,1.50534798534799
159.601402000003,1.56498168498168
159.681928000003,1.80190476190476
159.763359999999,1.81882783882784
159.842074000001,1.37318681318681
159.922869000003,1.45135531135531
160.002381000005,1.45457875457875
160.082272,1.55047619047619
160.166803000003,1.49245421245421
160.247078000002,1.55450549450549
160.331405000001,1.5214652014652
160.412669,1.76322344322344
160.493504000001,1.75838827838828
160.572723999999,1.32886446886447
160.652932000004,1.383663003663
160.733666000001,1.40945054945055
160.819361000001,1.55692307692308
160.900420000002,1.46344322344322
160.981079000004,1.54322344322344
161.059880000003,1.50212454212454
161.139653999999,1.75677655677656
161.217046000004,1.83091575091575
161.297207000002,1.32644688644689
161.388199000001,1.38124542124542
161.468414999999,1.41267399267399
161.549045000002,1.52791208791209
161.629059,1.46827838827839
161.710173,1.44168498168498
161.789512000002,1.55531135531136
161.869223000005,1.90021978021978
161.950394000001,1.57223443223443
162.03025,1.35948717948718
162.109950000003,1.38930402930403
162.193906999998,1.42153846153846
162.279449000001,1.51340659340659
162.359539000005,1.44007326007326
162.439516000003,1.50534798534799
162.519031000003,1.55289377289377
162.598840999998,1.87282051282051
162.675995999999,1.47150183150183
162.754670000002,1.29663003663004
162.850061000004,1.34739926739927
162.926064000003,1.36029304029304
163.005491000004,1.45377289377289
163.086359999999,1.41831501831502
163.167228,1.40945054945055
163.246659000002,1.53919413919414
163.325664000005,1.84622710622711
163.406339000002,1.53194139194139
163.486548,1.32161172161172
163.566318000004,1.40300366300366
163.646513000004,1.44410256410256
163.740561999999,1.4803663003663
163.819844000004,1.5174358974359
163.900425999999,3.19765567765568
163.981225000002,1.57626373626374
164.058343000002,1.71567765567766
164.138778999999,2.1443956043956
164.218342,1.35304029304029
164.301630000003,1.3796336996337
164.381544,1.40783882783883
164.461800999999,1.45457875457875
164.542200999998,1.51421245421245
164.622517000005,1.51098901098901
164.702836999997,3.17267399267399
164.783719000004,1.49567765567766
164.864042999998,1.60688644688645
164.943714000002,2.02673992673993
165.023843000002,1.25391941391941
165.103811000004,1.27809523809524
165.188964000002,1.36029304029304
165.274145000003,1.37882783882784
165.354473999999,1.42637362637363
165.434041000001,1.53435897435897
165.514903999999,1.52307692307692
165.594545000002,1.51824175824176
165.674230999999,1.57787545787546
165.755620999999,1.91472527472527
165.836147,1.60285714285714
165.916829000004,1.3796336996337
165.996736000001,1.42234432234432
166.076439000003,1.44813186813187
166.156094999999,1.46505494505495
166.242354000002,1.52630036630037
166.326461999997,1.61978021978022
166.404559,1.58593406593407
166.484055,1.49567765567766
166.564338,1.59238095238095
166.644403000005,1.89619047619048
166.723708000004,1.7414652014652
166.802967,1.30227106227106
166.898673,1.31274725274725
166.975340999998,1.3240293040293
167.055408,1.38688644688645
167.134258000001,1.44893772893773
167.213961000003,1.47069597069597
167.294001000002,2.26205128205128
167.371737999998,1.49245421245421
167.451283,1.61736263736264
167.547023000002,2.12021978021978
167.626105000004,1.33047619047619
167.703272,1.29501831501831
167.781605999999,1.36996336996337
167.860641000003,1.41831501831502
167.940506000005,1.51985347985348
168.021910999998,1.54564102564103
168.101204999998,1.54886446886447
168.179620999999,1.48681318681319
168.275063000001,1.5440293040293
168.355004000001,1.56820512820513
168.434858000003,1.95663003663004
168.513708999999,1.47956043956044
168.590193000004,1.28695970695971
168.670509000003,1.33289377289377
168.751171999998,1.36996336996337
168.828736000001,1.43040293040293
168.907542000003,1.41912087912088
169.003640000001,1.47311355311355
169.083725000001,1.48117216117216
169.164795000002,3.1992673992674
169.244335000001,1.50857142857143
169.323375,1.68666666666667
169.402133000001,2.20644688644689
169.481759999998,1.31919413919414
169.560980000004,1.37399267399267
169.640615000002,1.43282051282051
169.719813000001,1.43846153846154
169.798557000004,1.48923076923077
169.893002999999,1.59882783882784
169.972754000001,1.60205128205128
170.053347000003,3.20087912087912
170.133048,1.62622710622711
170.215100000001,1.76
170.291175999999,2.28783882783883
170.370605999999,1.27164835164835
170.451288000003,1.28937728937729
170.531634000003,1.32805860805861
170.612484000005,1.36432234432234
170.690572999999,1.40783882783883
170.772601999998,1.43765567765568
170.858055,1.60527472527473
170.937866000004,1.40783882783883
171.018317000002,1.53194139194139
171.098298,1.97355311355311
171.177751000002,1.35062271062271
171.263,1.30227106227106
171.339752999999,1.34981684981685
171.419833999999,1.39978021978022
171.511035999998,1.47794871794872
171.581254000001,1.54644688644689
171.661013000004,1.54805860805861
171.743247000001,2.96153846153846
171.822583000004,1.56498168498168
171.913221000001,1.8196336996337
171.992906999998,2.30556776556777
172.072147,1.40864468864469
172.152241999999,1.40864468864469
172.232851000004,1.42959706959707
172.310931000002,1.46021978021978
172.390791000001,1.53919413919414
172.485237999998,1.51501831501831
172.566071000002,1.39575091575092
172.647181000002,1.48842490842491
172.725979000002,1.8156043956044
172.805527000003,1.63912087912088
172.885386,1.22007326007326
172.966625,1.25794871794872
173.046255000003,1.32
173.124204000004,1.37076923076923
173.202109999999,1.43040293040293
173.283200999998,2.84952380952381
173.376553999998,1.4392673992674
173.457274000004,1.59076923076923
173.534688000001,2.1218315018315
173.611976999998,1.30307692307692
173.691656000003,1.34095238095238
173.770857000001,1.40461538461538
173.850513000004,1.42234432234432
173.930195,1.56095238095238
174.009583999999,1.53113553113553
174.105436999999,1.80835164835165
174.185402000003,1.54483516483516
174.271737999998,1.75194139194139
174.333564999998,2.0396336996337
174.414287,1.29260073260073
174.495843000002,1.33047619047619
174.585480999999,1.40300366300366
174.664520000003,1.45377289377289
174.746832000002,1.57948717948718
174.826435000002,1.55450549450549
174.906083000004,1.53355311355311
174.986155000001,1.4803663003663
175.066390000001,1.76080586080586
175.151557999998,1.87443223443223
175.232016000003,1.28051282051282
175.305355000004,1.35465201465201
175.393446000002,1.3796336996337
175.474656999998,1.43120879120879
175.554502999999,1.46263736263736
175.634561000004,3.19201465201465
175.716513000004,1.46666666666667
175.795564000003,1.62945054945055
175.875093000002,2.2040293040293
175.954675999999,1.36271062271062
176.034787,1.36996336996337
176.114825999998,1.4167032967033
176.195987999998,1.45135531135531
176.287952,1.46021978021978
176.366611000001,1.50212454212454
176.446993000001,1.74468864468864
176.526305,1.48600732600733
176.605314000003,1.61010989010989
176.685233000003,2.04527472527473
176.764361000001,1.38608058608059
176.858130000003,1.34739926739927
176.938016000003,1.32322344322344
177.01757,1.39010989010989
177.097364,1.47311355311355
177.176497000001,1.59238095238095
177.253822999999,1.56739926739927
177.332748000003,1.5585347985348
177.411005000003,1.59318681318681
177.492015000001,1.81641025641026
177.587917000003,1.88490842490842
177.666945,1.25472527472527
177.746806000002,1.31355311355311
177.824759000003,1.34981684981685
177.904954000004,1.42315018315018
177.983185000002,1.54080586080586
178.062436999999,1.51582417582418
178.141888999999,1.44410256410256
178.223298,1.53113553113553
178.302244000003,1.74710622710623
178.383276000001,1.98564102564103
178.465405000001,1.29663003663004
178.544241999999,1.33772893772894
178.624557999998,1.39494505494505
178.715441,1.42879120879121
178.795723000005,1.46666666666667
178.875550000004,1.50212454212454
178.955980000004,1.48761904761905
179.034625,3.19765567765568
179.114781000003,1.49970695970696
179.195002999999,1.67296703296703
179.275274999999,2.19758241758242
179.355844000004,1.33289377289377
179.441061000004,1.38446886446886
179.520601999998,1.43846153846154
179.600682999998,1.45457875457875
179.680480000004,1.48923076923077
179.763307000004,1.53758241758242
179.841581,1.53838827838828
179.921380000003,3.22424908424908
180.001638999999,1.53838827838828
180.081946000002,1.67538461538462
180.162351999998,2.20805860805861
180.25225,1.31194139194139
180.326145999998,1.28615384615385
180.419954000004,1.33611721611722
180.498914999999,1.37802197802198
180.575759000003,1.45457875457875
180.654976999998,1.49326007326007
180.734420000002,1.51904761904762
180.813777000003,1.5770695970696
180.891342,1.45538461538462
180.985881999999,1.64556776556777
181.062640000001,2.07589743589744
181.140748999998,1.27003663003663
181.220467,1.29904761904762
181.299638000004,1.35142857142857
181.379077,1.42234432234432
181.458765000001,1.51018315018315
181.553008000001,1.6181684981685
181.631138000004,1.57787545787546
181.710515000001,1.39413919413919
181.788395999998,1.58432234432234
181.868927000001,1.79787545787546
181.948211999997,2.07267399267399
182.027228,1.39978021978022
182.106946000002,1.41589743589744
182.200998999998,1.4021978021978
182.272100000002,1.43765567765568
182.351822000004,1.45054945054945
182.430292999998,1.50051282051282
182.511192000002,1.51824175824176
182.591336999998,1.82043956043956
182.681263000004,1.54564102564103
182.763130000003,1.76967032967033
182.842627000004,2.08959706959707
182.922333999999,1.36432234432234
183.002586999998,1.34739926739927
183.08268,1.45054945054945
183.162715000004,1.35304029304029
183.242723000005,1.37641025641026
183.321876000002,1.41267399267399
183.402074000001,3.21296703296703
183.485986000001,1.47472527472527
183.566412,1.6181684981685
183.647329999998,2.06058608058608
183.727555,1.31677655677656
183.807511,1.39010989010989
183.888126000002,1.43282051282051
183.967880000003,1.51260073260073
184.057958999999,1.53113553113553
184.137528999999,1.5770695970696
184.217516000003,3.0759706959707
184.303272,1.56820512820513
184.381333999999,1.67619047619048
184.459024000004,2.05494505494505
184.536155000001,1.29904761904762
184.630030000001,1.28454212454212
184.709651000001,1.27728937728938
184.788277000003,1.34498168498168
184.867803999998,1.38527472527473
184.948447999999,1.36351648351648
185.028093000002,2.59164835164835
185.108373999998,1.43765567765568
185.188807000004,1.57787545787546
185.268303000003,2.01223443223443
185.349441,1.35465201465201
185.427035000004,1.35626373626374
185.521638999999,1.39333333333333
185.598182000004,1.41831501831502
185.674331,1.48278388278388
185.754420000002,1.53838827838828
185.832586000003,3.1992673992674
185.924506000005,1.60527472527473
186.000678000003,1.78981684981685
186.077351000004,2.23384615384615
186.155325999998,1.33369963369963
186.249630000003,1.34498168498168
186.331006999999,1.35142857142857
186.408456,1.42153846153846
186.488217,1.4021978021978
186.568020000003,3.19282051282051
186.648332000002,1.46344322344322
186.727469999999,1.62783882783883
186.808506000005,2.12827838827839
186.887796000004,1.24908424908425
186.968009999998,1.2603663003663
187.047357000001,1.34820512820513
187.125953000002,1.39978021978022
187.221171999998,1.47069597069597
187.301171000004,1.45941391941392
187.381107000001,1.49567765567766
187.461280000001,1.57948717948718
187.541403999999,1.97516483516483
187.621458000004,1.46021978021978
187.702255000003,1.36754578754579
187.782026000001,1.38930402930403
187.861903000005,1.43604395604396
187.941670000002,1.63912087912088
188.022239,1.59238095238095
188.100578000002,1.69391941391941
188.181318999998,1.66007326007326
188.259464000002,1.88571428571429
188.341991000004,2.00336996336996
188.421423,1.32241758241758
188.506513999999,1.35062271062271
188.586202,1.36351648351648
188.666129000001,1.41428571428571
188.747109000005,1.39333333333333
188.826969999999,2.60534798534799
188.906691,1.40380952380952
188.997526000001,1.5851282051282
189.076989,1.99934065934066
189.156861000001,1.25472527472527
189.237296000004,1.33772893772894
189.317482000001,1.38769230769231
189.397303999998,1.43040293040293
189.488115000002,1.51985347985348
189.556373000003,1.43120879120879
189.635905000001,1.53032967032967
189.717127999999,1.57948717948718
189.796833999999,1.92117216117216
189.887633000001,1.70520146520147
189.967506000005,1.40703296703297
190.047619000003,1.41589743589744
190.127954999998,1.41992673992674
190.207844999999,1.46747252747253
190.288493000001,1.50695970695971
190.366387000002,1.49567765567766
190.447276000001,1.6221978021978
190.527061000004,1.61897435897436
190.621210000001,2.00498168498169
190.701524999998,1.44974358974359
190.781685000002,1.34659340659341
190.860715999998,1.3425641025641
190.938906000003,1.32483516483516
191.017155000001,1.44974358974359
191.096642999999,1.39897435897436
191.176512000002,1.78578754578755
191.256162,1.4618315018315
191.336399999999,1.70520146520147
191.432965000004,2.02271062271062
191.511028000005,1.30871794871795
191.589651000001,1.36029304029304
191.667739,1.39252747252747
191.747932000004,1.42637362637363
191.825252999999,1.4989010989011
191.904814000003,1.55369963369963
191.984583999999,3.1992673992674
192.075542999998,1.58190476190476
192.155745999999,1.73904761904762
192.235783,2.18791208791209
192.314542999998,1.33208791208791
192.394991000004,1.35787545787546
192.475097000003,1.4021978021978
192.554538000003,1.4207326007326
192.632960000001,1.46666666666667
192.726285999998,1.50373626373626
192.806557999998,1.4578021978022
192.886846000001,1.51663003663004
192.966410999998,1.56014652014652
193.047094999999,1.9429304029304
193.125630000003,1.42798534798535
193.204850000001,1.33128205128205
193.282645000003,1.40139194139194
193.362836999997,1.43684981684982
193.456623000003,1.49326007326007
193.536081,1.52952380952381
193.616167999998,1.53919413919414
193.697127000004,2.0767032967033
193.775497000001,1.52065934065934
193.855506999999,1.61091575091575
193.934693999998,2.11538461538462
194.013342,1.41912087912088
194.092340999998,1.36351648351648
194.171594000004,1.38688644688645
194.265090999998,1.39333333333333
194.345376000002,1.43765567765568
194.425234000005,1.54483516483516
194.505899000004,1.50615384615385
194.585814999998,1.38285714285714
194.665597000003,1.51904761904762
194.745767999999,1.81721611721612
194.823840999998,1.70681318681319
194.902745000005,1.26278388278388
194.983223000005,1.30871794871795
195.062101999998,1.36190476190476
195.156537,1.42637362637363
195.236781999998,1.45860805860806
195.317473999999,1.55611721611722
195.396876000002,1.53919413919414
195.474045000002,1.44410256410256
195.554147,1.58593406593407
195.632869000003,1.84783882783883
195.711973000005,1.85186813186813
195.790662,1.32805860805861
195.870622000001,1.39333333333333
195.950175999999,1.45538461538462
196.045609999999,1.51904761904762
196.126181000002,1.54483516483516
196.205707000002,1.6367032967033
196.282316,1.56417582417582
196.362538000003,1.61575091575092
196.442460000001,1.54
196.523004000001,1.77369963369963
196.599557000004,1.99047619047619
196.680336000003,1.29985347985348
196.770572999999,1.32483516483516
196.850171000004,1.36593406593407
196.930351000004,1.34981684981685
197.010125,1.3756043956044
197.090266000003,1.49003663003663
197.169739,1.49728937728938
197.251862999998,1.3796336996337
197.331009000003,1.53274725274725
197.410028999999,1.79545787545788
197.490050000004,1.9018315018315
197.574699000001,1.33289377289377
197.656840999998,1.36271062271062
197.738434,1.38205128205128
197.819575999998,1.4578021978022
197.899408,1.53758241758242
197.978344000004,1.65040293040293
198.059089000002,1.57545787545788
198.138476000004,1.49326007326007
198.219589000002,1.58673992673993
198.305811000004,1.80512820512821
198.386593000002,2.00336996336996
198.465607000001,1.31274725274725
198.547707000002,1.36754578754579
198.625866999999,1.383663003663
198.705903000005,1.39413919413919
198.784484000005,1.46505494505495
198.881530000001,1.56578754578755
198.961743000001,1.44813186813187
199.041295000002,1.39978021978022
199.120568999998,1.52468864468864
199.199169,1.76080586080586
199.279898000002,2.0025641025641
199.357066,1.33531135531136
199.436740000002,1.38769230769231
199.516597000003,1.41509157509157
199.596813000001,1.46747252747253
199.676888000004,1.51098901098901
199.771527000003,1.64717948717949
199.851864,1.5810989010989
199.933303999998,1.56901098901099
200.011173,1.64395604395604
200.091223999999,1.90908424908425
200.171075000003,1.93084249084249
200.250564999998,1.36432234432234
200.330439999998,1.39978021978022
200.408495999999,1.39091575091575
200.487910999998,1.40300366300366
200.567879000001,1.46827838827839
200.649247000001,1.38688644688645
200.729100000001,1.45457875457875
200.824803000003,1.54080586080586
200.905965000004,1.86315018315018
200.984728,1.37399267399267
201.064086999997,1.23135531135531
201.144093000002,1.32805860805861
201.224908,1.38285714285714
201.304747000001,1.43523809523809
201.383431000002,1.56417582417582
201.462340999998,1.53113553113553
201.541123000003,1.43201465201465
201.619056000002,1.56820512820513
201.713141000003,1.86556776556777
201.794064999998,1.74710622710623
201.873463,1.34739926739927
201.951579999998,1.42959706959707
202.031202,1.44893772893773
202.110329000004,1.49164835164835
202.190056000002,1.51985347985348
202.271799000002,1.53677655677656
202.351726000004,3.20410256410256
202.432263000004,1.54483516483516
202.513678000003,1.69714285714286
202.592564999998,2.21047619047619
202.675667000003,1.31838827838828
202.757160999998,1.30791208791209
202.837270000003,1.34739926739927
202.917535000004,1.32886446886447
202.998248000003,1.39978021978022
203.077178999998,1.41025641025641
203.157541000001,1.40300366300366
203.246487999998,1.49728937728938
203.328024999999,1.76483516483516
203.407631999999,2.05010989010989
203.488476000004,1.29904761904762
203.567848999999,1.3570695970696
203.655461000003,1.41186813186813
203.725618000001,1.46263736263736
203.806774999999,1.52549450549451
203.887009000003,1.51904761904762
203.976,3.19765567765568
204.055653000005,1.54080586080586
204.135568999998,1.76
204.217508000001,2.28542124542125
204.298931000002,1.28373626373626
204.376134000003,1.2643956043956
204.454714000002,1.32
204.535127000004,1.40461538461538
204.630316,1.47069597069597
204.709104000002,1.46666666666667
204.786223000005,1.74791208791209
204.865339000002,1.49728937728938
204.945174000002,1.57142857142857
205.024412,2.03641025641026
205.104138999999,1.36673992673993
205.184594000004,1.31113553113553
205.262553000003,1.3570695970696
205.358691,1.39655677655678
205.437864,1.45619047619048
205.516813000001,1.58754578754579
205.596728,1.53677655677656
205.675976999998,1.41025641025641
205.753972000003,1.5585347985348
205.831983000003,1.80190476190476
205.912501000002,1.88893772893773
206.006629000001,1.37882783882784
206.086732000001,1.41347985347985
206.166600000001,1.41267399267399
206.246512000002,1.43282051282051
206.321505000003,1.45296703296703
206.401534000002,1.46989010989011
206.482068999998,2.00820512820513
206.563211999997,1.52871794871795
206.642851000004,1.6447619047619
206.721093000002,2.0396336996337
206.800791000001,1.40945054945055
206.890695,1.34578754578755
206.970215000004,1.32967032967033
207.050214000002,1.36673992673993
207.130223000005,1.45216117216117
207.211502999999,1.5214652014652
207.291052000001,1.52630036630037
207.370664000005,1.68747252747253
207.451811000004,1.54161172161172
207.532160000004,1.78659340659341
207.612609000005,2.08234432234432
207.705843000002,1.34820512820513
207.776622000001,1.3610989010989
207.857149999999,1.41025641025641
207.937129000001,1.48923076923077
208.017303000003,1.47956043956044
208.097957000002,2.56908424908425
208.177283,1.4578021978022
208.266814999998,1.60285714285714
208.346923,2.06945054945055
208.426002999999,1.30952380952381
208.501729000002,1.30065934065934
208.597682999998,1.36835164835165
208.678197999999,1.40864468864469
208.755792000003,1.50373626373626
208.835800999999,1.49245421245421
208.915986000001,1.30307692307692
208.996684,1.5029304029304
209.075333999999,1.76886446886447
209.155193000004,1.78578754578755
209.235403999999,1.31113553113553
209.314325999998,1.37802197802198
209.395009999998,1.39978021978022
209.487596000001,1.48842490842491
209.566829999998,1.48681318681319
209.644572000004,1.83655677655678
209.721412,1.53516483516484
209.800917999998,1.7189010989011
209.880001000002,2.07267399267399
209.958840000004,1.36835164835165
210.051431000002,1.42556776556777
210.132517999999,1.43362637362637
210.212303000003,1.45941391941392
210.282471000001,1.4618315018315
210.373906000003,3.19282051282051
210.455730999999,1.51663003663004
210.534245000005,1.68586080586081
210.615048,2.15809523809524
210.694897,1.33208791208791
210.769805,1.36432234432234
210.850284000002,1.40703296703297
210.930732000001,1.41267399267399
211.020513999999,1.45135531135531
211.100138999999,3.1025641025641
211.180316,1.48600732600733
211.259171000004,1.65765567765568
211.339443000004,2.15648351648352
211.420737000003,1.30630036630037
211.500725000001,1.3385347985348
211.580262000002,1.37076923076923
211.660126000002,1.41267399267399
211.746864,1.40945054945055
211.826976000004,2.67142857142857
211.908024000004,1.49567765567766
211.987208999999,1.74630036630037
212.067586000003,2.07912087912088
212.147362999998,1.33369963369963
212.228098000005,1.38205128205128
212.321620999999,1.42879120879121
212.400107000001,1.4843956043956
212.478614,1.476336996337
212.557118000001,2.51186813186813
212.637730000004,1.47472527472527
212.717234000005,1.71406593406593
212.797916000001,2.0581684981685
212.886508000001,1.28051282051282
212.96582,1.30468864468864
213.046755000003,1.34981684981685
213.125203000002,1.40461538461538
213.205083999999,1.41831501831502
213.285869000003,3.19684981684982
213.365057999998,1.4989010989011
213.445745999999,1.70923076923077
213.525068999998,2.18065934065934
213.604071000002,1.41992673992674
213.683943999998,1.3570695970696
213.777796000004,1.35545787545788
213.854647,1.49245421245421
213.931138999999,1.48761904761905
214.009835000001,1.47391941391941
214.087917000003,1.50937728937729
214.182144000001,1.7825641025641
214.262652000003,1.75194139194139
214.340013000004,1.27728937728938
214.420818000004,1.3385347985348
214.500552000001,1.36915750915751
214.576278999999,1.42153846153846
214.654468000002,1.44490842490842
214.748373000003,3.19604395604396
214.826365000002,1.4989010989011
214.904056000002,1.64556776556777
214.984358000003,2.08556776556777
215.064625,1.2789010989011
215.142270000003,1.35545787545788
215.222410999998,1.38688644688645
215.303445,1.47391941391941
215.397067000002,1.49245421245421
215.475960000001,1.51985347985348
215.556461999998,1.5029304029304
215.634912,1.62622710622711
215.714074000001,2.05413919413919
215.792006000005,1.41831501831502
215.871891000003,1.34417582417582
215.95118,1.45377289377289
216.031211999998,1.47794871794872
216.126963,1.52468864468864
216.203160999998,1.5214652014652
216.281506999999,2.35230769230769
216.362328000002,1.50857142857143
216.442391000003,1.6592673992674
216.522582000002,2.1443956043956
216.601833000004,1.3385347985348
216.681590999998,1.29421245421245
216.763789000005,1.32322344322344
216.842971000001,1.35223443223443
216.922943000004,1.38849816849817
217.002843000002,1.32967032967033
217.093305,1.41509157509157
217.171925999999,1.50857142857143
217.251942000002,1.92358974358974
217.331875,1.42717948717949
217.413921999998,1.30307692307692
217.493577,1.40058608058608
217.573452,1.41912087912088
217.653489,1.46989010989011
217.735442000002,1.52791208791209
217.822675000004,2.54410256410256
217.90182,1.5214652014652
217.981649999999,1.69553113553114
218.063523000002,2.21128205128205
218.142829999998,1.37721611721612
218.222700999998,1.33611721611722
218.309166000001,1.35868131868132
218.389211000003,1.40461538461538
218.467311000004,1.45216117216117
218.546281999998,1.46102564102564
218.625759000003,3.19765567765568
218.705230999999,1.50937728937729
218.799138999999,1.67538461538462
218.877539000005,2.19516483516483
218.957715999998,1.25714285714286
219.038090000004,1.31838827838828
219.118734999999,1.34498168498168
219.197903999999,1.39655677655678
219.276490000002,1.46666666666667
219.355866999999,1.47311355311355
219.434520999998,3.17831501831502
219.514403999999,1.51098901098901
219.608524999999,1.72373626373626
219.688858000003,2.16937728937729
219.768251000002,1.35223443223443
219.848366000004,1.37882783882784
219.929335000001,1.44410256410256
220.008153000005,1.49567765567766
220.085535000004,1.60688644688645
220.165388999999,1.52549450549451
220.245456,1.30227106227106
220.326350000001,1.58754578754579
220.405002999999,1.77289377289377
220.498386,1.81318681318681
220.575702,1.3159706959707
220.654563000001,1.41912087912088
220.734079000004,1.50051282051282
220.814068999998,1.42717948717949
220.892748999998,1.31032967032967
220.972483000003,3.17186813186813
221.052666000001,1.35545787545788
221.147620999999,1.50695970695971
221.225425000004,1.93245421245421
221.302024999999,1.31113553113553
221.380710000001,1.40542124542125
221.459243000001,1.45941391941392
221.538669,1.49164835164835
221.618213,1.55369963369963
221.700634000003,1.85750915750916
221.795678000003,1.54886446886447
221.874090999998,1.65040293040293
221.953726999998,2.00820512820513
222.033984000005,1.51582417582418
222.113987000003,1.5359706959707
222.192671000004,1.46344322344322
222.269939000003,1.37802197802198
222.348126000002,1.45296703296703
222.427792000003,2.93333333333333
222.523697999999,1.45538461538462
222.603484000005,1.71084249084249
222.683689999998,1.93487179487179
222.762118000001,1.2603663003663
222.841358000003,1.30549450549451
222.918855000004,1.30388278388278
222.996311000004,1.44007326007326
223.076390000001,1.43040293040293
223.173814999998,1.41267399267399
223.252204999998,1.55692307692308
223.330770999998,1.90586080586081
223.405890000001,1.43604395604396
223.486284000002,1.26842490842491
223.566042999998,1.27164835164835
223.647262000002,1.43120879120879
223.726901000001,1.50373626373626
223.807136,3.15333333333333
223.886723000005,1.58351648351648
223.979520000003,1.82527472527473
224.054883000001,2.13714285714286
224.131789999999,1.26842490842491
224.209533,1.31032967032967
224.290094999999,1.383663003663
224.386020000003,1.40300366300366
224.464015000001,3.16703296703297
224.540642000005,1.43443223443223
224.619101999998,1.55692307692308
224.697072000004,2.14681318681319
224.789278999999,1.31919413919414
224.868763000004,1.32886446886447
224.948413000003,1.29179487179487
225.025693000004,1.43846153846154
225.104607000001,1.43282051282051
225.184789999999,1.32644688644689
225.265336999997,1.52791208791209
225.346259999998,1.87604395604396
225.425441,1.56901098901099
225.505140000001,1.30388278388278
225.584862000003,1.34417582417582
225.680517000005,1.38205128205128
225.760563000001,1.4392673992674
225.838829000004,1.47230769230769
225.91493,3.2032967032967
225.993217,1.53032967032967
226.073112000003,1.71487179487179
226.152938000001,2.14197802197802
226.248149999999,1.3425641025641
226.326034000002,1.34578754578755
226.406620000005,1.39010989010989
226.484829000004,1.40542124542125
226.563443000004,1.51340659340659
226.644336000003,1.50776556776557
226.724031000003,1.50695970695971
226.802807000004,1.50695970695971
226.882876000002,1.79384615384615
226.962722000003,1.78981684981685
227.042979000002,1.32161172161172
227.138138999999,1.46263736263736
227.215910999998,1.42798534798535
227.293523000002,1.40703296703297
227.370115000002,1.42153846153846
227.448414999999,2.56747252747253
227.543649999999,1.43765567765568
227.620443000004,1.60205128205128
227.700357000001,2.06461538461538
227.779588,1.32
227.856537,1.33450549450549
227.937046999998,1.3796336996337
228.017006000005,1.45296703296703
228.095338,1.52549450549451
228.187321000002,1.53355311355311
228.267202,2.16937728937729
228.345840999998,1.52549450549451
228.425623999998,1.65684981684982
228.505504000001,2.10087912087912
228.585060000002,1.39252747252747
228.664329000004,1.35384615384615
228.758883000001,1.40945054945055
228.837314999998,1.40703296703297
228.917447999999,1.4247619047619
228.996553999998,1.5029304029304
229.074348000005,1.52549450549451
229.154493000001,1.51985347985348
229.233156000003,1.58271062271062
229.314598999999,2.02593406593407
229.391704000004,1.4618315018315
229.472145000003,1.30468864468864
229.566958000004,1.37076923076923
229.646597000003,1.36915750915751
229.724471000001,1.43120879120879
229.804473999999,1.45054945054945
229.884796999998,1.57142857142857
229.962346000001,1.50615384615385
230.043093000002,1.61897435897436
230.121056000002,2.09201465201465
230.214905000001,1.43443223443223
230.294497000001,1.33047619047619
230.374071000002,1.34417582417582
230.454321000002,1.37882783882784
230.534223000005,1.43765567765568
230.613313000001,1.51098901098901
230.692406999998,1.48761904761905
230.772083999999,3.19846153846154
230.851993000001,1.49809523809524
230.929802000001,1.61575091575092
231.010309,2.12908424908425
231.091577,1.25875457875458
231.185792999998,1.31355311355311
231.265482000001,1.36190476190476
231.343873000003,1.41509157509157
231.423567000002,1.476336996337
231.503636,1.59238095238095
231.582193000004,1.55128205128205
231.663213,1.4618315018315
231.742079000004,1.57545787545788
231.821737000003,1.85831501831502
231.901734000005,1.86234432234432
231.981332000002,1.39252747252747
232.078343000002,1.41267399267399
232.157506000005,1.42879120879121
232.238111000001,1.45377289377289
232.317026000001,1.53355311355311
232.397037,1.5029304029304
232.477085000001,3.19765567765568
232.556211999997,1.47391941391941
232.635152000003,1.66087912087912
232.714917000003,2.15406593406593
232.791460000001,1.27970695970696
232.887745999999,1.31758241758242
232.967034000002,1.31677655677656
233.047432000004,1.3570695970696
233.124649999998,1.41831501831502
233.203887000002,1.47553113553114
233.284318999998,1.88974358974359
233.361513999999,1.46505494505495
233.441469000004,1.60769230769231
233.536252999999,2.05494505494505
233.615178000003,1.37399267399267
233.695987000003,1.34175824175824
233.774327,1.38205128205128
233.854096000001,1.41347985347985
233.932921999998,1.54322344322344
234.011552000001,1.68021978021978
234.089986000001,1.6407326007326
234.167817000002,1.48923076923077
234.263489,1.60205128205128
234.338031999998,1.89538461538462
234.416781999998,1.69553113553114
234.495776000001,1.28454212454212
234.57493,1.34901098901099
234.652645000003,1.36432234432234
234.747555,1.42717948717949
234.829528000005,1.43765567765568
234.909079999998,3.20571428571429
234.990200999998,1.45054945054945
235.067322999999,1.64556776556777
235.142598000005,2.17098901098901
235.220693999998,1.28937728937729
235.301053999998,1.32483516483516
235.395714000002,1.38608058608059
235.473322999999,1.42556776556777
235.552625,1.45699633699634
235.632664000005,1.46586080586081
235.712364,3.19684981684982
235.790344999999,1.48600732600733
235.869502999999,1.82205128205128
235.950152000003,2.36681318681319
236.031406000003,1.45941391941392
236.125784000002,1.47714285714286
236.206332000002,1.36915750915751
236.285954999998,1.35868131868132
236.362535000004,1.43040293040293
236.442348000005,1.45054945054945
236.521835000001,3.19846153846154
236.601086000003,1.47311355311355
236.679763999999,1.63509157509158
236.759421000004,2.22417582417582
236.854825999998,1.26923076923077
236.938081,1.2643956043956
237.015579000004,1.32
237.093620999999,1.36915750915751
237.173774000004,1.42234432234432
237.252270000003,1.48520146520147
237.332081,1.49003663003663
237.408784000002,1.56981684981685
237.487623999998,2.07992673992674
237.582453000002,1.35868131868132
237.659908,1.26681318681319
237.738840999998,1.38608058608059
237.817629000001,1.43282051282051
237.895990000002,1.50937728937729
237.975239,1.51421245421245
238.067240000002,3.1992673992674
238.146028000005,1.50857142857143
238.223413000002,1.67457875457875
238.302357000001,2.2967032967033
238.381703000002,1.27648351648352
238.460677000001,1.32564102564103
238.540924000002,1.35787545787546
238.636133000001,1.39413919413919
238.714348000005,1.51501831501831
238.794453000002,1.47956043956044
238.875844999999,1.28212454212454
238.955114,1.4989010989011
239.034178999998,1.76967032967033
239.114432000004,1.83736263736264
239.192420000002,1.27245421245421
239.272081,1.34175824175824
239.353072999999,1.39252747252747
239.433094000004,1.44087912087912
239.513914000005,1.54805860805861
239.608711000003,1.49245421245421
239.688300999999,1.4843956043956
239.766773000002,1.56820512820513
239.846781000003,1.92600732600733
239.927611000001,1.65201465201465
240.006552000001,1.38205128205128
240.087196000002,1.39413919413919
240.165789999999,1.41750915750916
240.244186999999,1.43846153846154
240.324178000003,1.49326007326007
240.403850000001,1.48600732600733
240.499336000003,3.12190476190476
240.579912,1.48117216117216
240.657795000002,1.65282051282051
240.736119000003,2.19194139194139
240.816273000002,1.34578754578755
240.895273000002,1.33772893772894
240.975031999998,1.35384615384615
241.054601000004,1.39333333333333
241.133420000002,1.43282051282051
241.227504000001,1.45216117216117
241.307144000001,3.19120879120879
241.385629000001,1.48600732600733
241.463645000003,1.63912087912088
241.543755000003,2.17018315018315
241.623410000004,1.31032967032967
241.703623000003,1.36190476190476
241.781002000004,1.40461538461538
241.875287,1.40461538461538
241.951541000001,1.52952380952381
242.028950000003,1.60688644688645
242.108987000003,1.49648351648352
242.188245000005,1.51824175824176
242.268484000005,1.58754578754579
242.345748000003,2.00739926739927
242.441086999998,1.43846153846154
242.520552000001,1.31355311355311
242.599598999999,1.35868131868132
242.679816,1.39252747252747
242.760108000003,1.41267399267399
242.839403999999,1.47875457875458
242.919935000002,1.4578021978022
243.002039000005,3.19201465201465
243.075634999998,1.50857142857143
243.155435000002,1.68263736263736
243.250039999999,2.19677655677656
243.330495999999,1.31032967032967
243.407130000003,1.33531135531136
243.485501000002,1.36271062271062
243.565884000003,1.43201465201465
243.645998999998,1.46505494505495
243.724961000003,1.5770695970696
243.803553000003,1.54967032967033
243.897728,1.44652014652015
243.975780000001,1.60285714285714
244.053420000002,1.87282051282051
244.132559,1.88571428571429
244.211370999999,1.39978021978022
244.292814999998,1.42395604395604
244.371866000004,1.43282051282051
244.452744000003,1.45619047619048
244.532414000005,1.52468864468864
244.612354000002,1.46263736263736
244.703233000003,1.36029304029304
244.784159000002,1.5440293040293
244.864450999998,1.8752380952381
244.944237000003,1.54564102564103
245.028917000003,1.24989010989011
245.105223999999,1.32
245.185950999998,1.33208791208791
245.265053999998,1.40139194139194
245.345513999999,1.48600732600733
245.424691,1.48197802197802
245.505316,2.15648351648352
245.58518,1.55208791208791
245.665984999999,1.77047619047619
245.747390000001,2.12747252747253
245.827256000005,1.32241758241758
245.917024999999,1.39494505494505
245.998103,1.45135531135531
246.073789000005,1.46586080586081
246.152461000003,1.51179487179487
246.233057999998,1.51098901098901
246.325387000002,2.62307692307692
246.405534000002,1.48197802197802
246.483266000003,1.60124542124542
246.563368000001,2.07186813186813
246.644316,1.33047619047619
246.723555,1.32886446886447
246.802274999999,1.36673992673993
246.881814000003,1.40864468864469
246.977414999999,1.44249084249084
247.056042999998,1.49487179487179
247.136622000001,1.51018315018315
247.214835000001,1.5359706959707
247.295375,1.60849816849817
247.374096000001,2.01465201465201
247.453431000002,1.5029304029304
247.5305,1.32886446886447
247.609914999999,1.37399267399267
247.689027000003,1.4021978021978
247.785046000004,1.51421245421245
247.865189000003,1.47794871794872
247.946133000001,1.39413919413919
248.024031000003,1.5851282051282
248.101839000002,1.84783882783883
248.182020999998,1.66652014652015
248.26,1.29179487179487
248.340193999998,1.34901098901099
248.418314000003,1.39575091575092
248.514226000004,1.41509157509157
248.594438000001,1.43765567765568
248.672921000004,2.01465201465201
248.751355999999,1.44410256410256
248.829178999998,1.57948717948718
248.906902000003,2.05494505494505
248.986450000003,1.29663003663004
249.067763000004,1.26842490842491
249.146494000003,1.32080586080586
249.242446000002,1.40703296703297
249.322888000004,1.4578021978022
249.402553999998,1.49245421245421
249.482436999999,3.19201465201465
249.561828000002,1.51663003663004
249.639844000004,1.65684981684982
249.717524000004,2.20805860805861
249.794822000004,1.31919413919414
249.875763000004,1.37238095238095
249.971081,1.46102564102564
250.051322999999,1.4803663003663
250.131189999998,1.53355311355311
250.212123999998,1.51985347985348
250.291011,2.9792673992674
250.369839000002,1.5029304029304
250.447884000003,1.66168498168498
250.526862999998,2.2185347985348
250.604600000001,1.31677655677656
250.700358000003,1.30791208791209
250.781428999998,1.36835164835165
250.860138999999,1.36351648351648
250.938763000004,1.41509157509157
251.017681000002,1.36673992673993
251.097594999999,1.34659340659341
251.174681000002,1.50051282051282
251.267053000003,1.90827838827839
251.344217,1.49245421245421
251.424120999999,1.2974358974359
251.501178999998,1.36190476190476
251.581480000004,1.42153846153846
251.658027000003,1.47150183150183
251.752561999999,1.57948717948718
251.832949000001,1.54241758241758
251.912954000004,3.16461538461538
251.990634999998,1.60608058608059
252.070623999998,1.78820512820513
252.149671000004,2.25238095238095
252.230357000001,1.35384615384615
252.309899999999,1.3610989010989
252.387452,1.38285714285714
252.467766000003,1.42879120879121
252.562354000002,1.476336996337
252.640973999999,1.55047619047619
252.720482000001,1.53677655677656
252.798362999998,1.4021978021978
252.879442000002,1.54564102564103
252.957899999999,1.80271062271062
253.037748000003,1.80512820512821
253.116211999997,1.27728937728938
253.196270999998,1.31758241758242
253.277692000002,1.37157509157509
253.371200000003,1.44490842490842
253.450615000002,1.53435897435897
253.529989,1.51501831501831
253.610421000004,3.19120879120879
253.688423,1.49164835164835
253.767263000004,1.67941391941392
253.846958000004,2.20805860805861
253.938458000004,1.28454212454212
254.015373000003,1.33450549450549
254.092824000001,1.383663003663
254.171362000003,1.41912087912088
254.251307999998,1.47391941391941
254.331294,1.55128205128205
254.411512000002,1.48278388278388
254.490061000004,1.5214652014652
254.584090000004,1.54241758241758
254.663678000003,1.91150183150183
254.743512000002,1.63509157509158
254.822564000003,1.33611721611722
254.902017000005,1.35062271062271
254.981956,1.36754578754579
255.062519000001,1.39897435897436
255.142482000001,1.45457875457875
255.221972000003,1.55450549450549
255.299965000004,1.51985347985348
255.396115000002,1.41186813186813
255.474439999998,1.54080586080586
255.551196000002,1.79142857142857
255.628625,1.98241758241758
255.709125,1.31355311355311
255.786890000001,1.38124542124542
255.879642999999,1.40542124542125
255.958151000001,1.47794871794872
256.036603,1.51663003663004
256.113230999999,1.61575091575092
256.192384999998,1.55128205128205
256.285620000005,1.50857142857143
256.364210000001,1.55208791208791
256.444728,1.84945054945055
256.522482000001,2.00820512820513
256.601230000004,1.28695970695971
256.680359000005,1.32161172161172
256.760112999998,1.35304029304029
256.854218000002,1.36996336996337
256.929726999998,1.43604395604396
257.008942000002,1.39897435897436
257.086542999998,3.1952380952381
257.166962999999,1.47311355311355
257.243560000002,1.65765567765568
257.339821000002,2.20967032967033
257.417600000001,1.29260073260073
257.493585000001,1.34336996336996
257.571828000002,1.37479853479853
257.648469000004,1.4021978021978
257.728722000003,1.4843956043956
257.823899999999,1.53032967032967
257.900921000004,1.54241758241758
257.980402000003,3.2032967032967
258.058652000003,1.57304029304029
258.138832000002,1.72776556776557
258.217590000004,2.2185347985348
258.301578000002,1.3570695970696
258.382112000003,1.37802197802198
258.463153999999,1.37882783882784
258.542774999999,1.41992673992674
258.624008000001,1.49245421245421
258.703120999999,1.55369963369963
258.784432000004,1.56336996336996
258.864370000005,3.16139194139194
258.945442000002,1.47150183150183
259.023987999998,1.66974358974359
259.114641000003,2.18388278388278
259.205270999998,1.27809523809524
259.272877999999,1.32967032967033
259.352601000004,1.35384615384615
259.430678000003,1.40380952380952
259.512053000003,1.51985347985348
259.593171999998,1.47794871794872
259.673684,1.48761904761905
259.753487999998,1.51501831501831
259.842572999999,1.7414652014652
259.922671000004,2.0025641025641
260.003244000003,1.33128205128205
260.083262000002,1.39978021978022
260.163237000003,1.41509157509157
260.238563000001,1.44571428571429
260.321912,1.48761904761905
260.402008000001,1.49406593406593
260.481480000004,3.19282051282051
260.571734999999,1.51663003663004
260.651906999998,1.70520146520147
260.732120999999,2.20644688644689
260.812511,1.30468864468864
260.892954000004,1.32805860805861
260.973441,1.31194139194139
261.053039000005,1.36835164835165
261.132561999999,1.45054945054945
261.220370999999,1.48520146520147
261.298425000004,3.19443223443223
261.378897,1.51340659340659
261.458539000005,1.67377289377289
261.538669,2.23062271062271
261.619281999998,1.34498168498168
261.699469999999,1.36432234432234
261.780092,1.40300366300366
261.859704000004,1.4167032967033
261.939997000001,1.54161172161172
262.020256000005,1.52468864468864
262.110120999999,3.19120879120879
262.189855000004,1.56336996336996
262.272598000005,1.76161172161172
262.351431000002,2.24835164835165
262.431783,1.27970695970696
262.513204999998,1.31274725274725
262.592767000005,1.35626373626374
262.672566,1.38527472527473
262.754030000001,1.48358974358974
262.833651000001,1.45135531135531
262.913256999999,1.86637362637363
262.993756000005,1.46021978021978
263.074133000001,1.69069597069597
263.153685000002,2.0847619047619
263.245225000001,1.27809523809524
263.316392000005,1.35304029304029
263.395811000004,1.38930402930403
263.486740000002,1.44732600732601
263.567186000004,1.49970695970696
263.647289999999,1.51663003663004
263.728035999998,2.66175824175824
263.808023000002,1.48197802197802
263.888414999999,1.63589743589744
263.967936000004,2.16695970695971
264.047244000003,1.41992673992674
264.129068000004,1.37479853479853
264.207986000001,1.41347985347985
264.301634000003,1.44813186813187
264.380725000001,1.47875457875458
264.461252999999,1.5359706959707
264.540563000001,1.53355311355311
264.620997000001,3.19040293040293
264.700464000002,1.48520146520147
264.779758000001,1.66410256410256
264.860931000002,2.2185347985348
264.941538000002,1.27406593406593
265.020324000001,1.25391941391941
265.100612999998,1.31274725274725
265.180508000001,1.35465201465201
265.261234000005,1.42717948717949
265.353671999998,1.42959706959707
265.434175000004,3.19684981684982
265.514042000003,1.47714285714286
265.593160000004,1.66974358974359
265.672783,2.2451282051282
265.751605000004,1.27809523809524
265.831464000002,1.32322344322344
265.911311000004,1.37479853479853
265.990713,1.44813186813187
266.070671000004,1.476336996337
266.151134000003,1.5029304029304
266.232461999997,1.49003663003663
266.325463,2.98087912087912
266.405921000004,1.48358974358974
266.484300999999,1.60608058608059
266.564442000002,2.15003663003663
266.644634000003,1.3385347985348
266.724184,1.3240293040293
266.803476999998,1.36271062271062
266.882842,1.41428571428571
266.962917000003,1.41267399267399
267.043796000004,1.43846153846154
267.123506999999,1.52791208791209
267.217120000005,1.46344322344322
267.296748999998,1.55047619047619
267.377593000002,1.60688644688645
267.455145000003,1.9614652014652
267.532447000004,1.62864468864469
267.611193000004,1.33289377289377
267.690560000002,1.38124542124542
267.782086999997,1.41912087912088
267.859252000004,1.46021978021978
267.937553999998,1.54080586080586
268.017877000004,1.56095238095238
268.098322999999,3.1847619047619
268.176669,1.51501831501831
268.256083000004,1.66410256410256
268.351278999999,2.19355311355311
268.430256999999,1.27567765567766
268.509697000004,1.28937728937729
268.587401000001,1.34820512820513
268.664425999999,1.38043956043956
268.741836000003,1.4247619047619
268.821607000001,1.52791208791209
268.917126000002,1.51663003663004
268.997298,1.34659340659341
269.078148000002,1.50534798534799
269.157447000004,1.78175824175824
269.237225000002,1.84380952380952
269.317186000004,1.3014652014652
269.396859999999,1.35304029304029
269.478501000002,1.40300366300366
269.556017000005,1.43523809523809
269.636634000003,1.48278388278388
269.715221000001,1.60043956043956
269.794620000005,1.56417582417582
269.887491000004,1.45377289377289
269.967241000004,1.60688644688645
270.045348999999,1.8010989010989
270.125651000001,2.09040293040293
270.203828000002,1.37238095238095
270.281748000003,1.36754578754579
270.361277000003,1.42234432234432
270.454906000003,1.45216117216117
270.534494000003,1.48278388278388
270.614454000004,1.52791208791209
270.695511,1.52871794871795
270.776164000005,2.76007326007326
270.853717,1.52549450549451
270.934272,1.61172161172161
271.014082000002,2.10490842490842
271.094311999999,1.30227106227106
271.171963,1.26117216117216
271.251425999999,1.32644688644689
271.345381999999,1.35787545787546
271.424909000002,1.40783882783883
271.505380000003,1.46666666666667
271.581873000003,1.47956043956044
271.660684,1.51824175824176
271.739105999999,1.5810989010989
271.819434,1.99208791208791
271.900423,1.44813186813187
271.993979000002,1.34739926739927
272.073696000002,1.40945054945055
272.154214000002,1.41589743589744
272.234923,1.45538461538462
272.314116000004,1.50534798534799
272.391949000001,1.55289377289377
272.471865000002,1.46102564102564
272.552461000003,1.55369963369963
272.630174000002,1.57384615384615
272.709686999999,1.90263736263736
272.789796999998,1.59882783882784
272.871556000002,1.29018315018315
272.965240000002,1.29260073260073
273.044197000004,1.32564102564103
273.124833999999,1.39897435897436
273.205307999998,1.45538461538462
273.282759000003,1.52710622710623
273.361881000005,1.53838827838828
273.441126000002,3.17992673992674
273.521800999999,1.54483516483516
273.613531999998,1.7189010989011
273.689984000005,2.20161172161172
273.768185000002,1.32644688644689
273.847296000004,1.36432234432234
273.926763000004,1.43604395604396
274.007090999998,1.49809523809524
274.099884000003,1.51663003663004
274.178380000003,1.55369963369963
274.257987000003,1.53194139194139
274.337987000003,3.18556776556777
274.41468,1.51340659340659
274.495744000003,1.64556776556777
274.574313000001,2.13150183150183
274.653495999999,1.28373626373626
274.733785999998,1.29340659340659
274.814064999998,1.35062271062271
274.894717,1.39333333333333
274.984079000004,1.37721611721612
275.064090999998,1.53274725274725
275.146609999999,1.49245421245421
275.224291000001,1.37721611721612
275.304346000001,1.52791208791209
275.381829000004,1.83736263736264
275.462302000001,1.76886446886447
275.542881000005,1.30307692307692
275.631513999999,1.37238095238095
275.711622000001,1.38124542124542
275.791869000003,1.45457875457875
275.871530000001,1.50534798534799
275.946362999998,1.60285714285714
276.035939999998,1.60608058608059
276.116111000001,2.08234432234432
276.196461999997,1.58754578754579
276.272240000002,1.74952380952381
276.366362999998,2.16051282051282
276.441732000001,1.32241758241758
276.522527000003,1.36673992673993
276.599899999999,1.36271062271062
276.677261,1.41186813186813
276.755722000003,1.47794871794872
276.85168,1.51582417582418
276.930398000002,1.50373626373626
277.010493000001,2.51750915750916
277.089721000001,1.47553113553114
277.169381000005,1.63106227106227
277.249173,2.0952380952381
277.330862000003,1.38285714285714
277.406825999998,1.30952380952381
277.486401000001,1.36271062271062
277.56618,1.35787545787546
277.663129000001,1.40945054945055
277.740523000002,1.44087912087912
277.818807999998,1.89860805860806
277.898137000002,1.4618315018315
277.977814999998,1.58915750915751
278.055013000004,2.04205128205128
278.135162,1.38608058608059
278.215908,1.31677655677656
278.301659000002,1.39494505494505
278.377421999998,1.4247619047619
278.464302000001,1.45296703296703
278.54618,1.52307692307692
278.623590999998,1.53838827838828
278.703781000003,3.18637362637363
278.784259000003,1.51501831501831
278.863870000005,1.68344322344322
278.944256000005,2.12263736263736
279.024984000005,1.25391941391941
279.105265000001,1.31194139194139
279.194086000003,1.3385347985348
279.273932999998,1.42153846153846
279.353645000003,1.5174358974359
279.430675000004,1.58351648351648
279.511083999999,1.53032967032967
279.590829999998,1.49970695970696
279.680141000003,1.59479853479853
279.761,1.91472527472527
279.841484000005,1.62300366300366
279.920039000005,1.3610989010989
280.000788000003,1.46505494505495
280.080836000003,1.47956043956044
280.161612000003,1.5625641025641
280.240131000005,1.48681318681319
280.334218000002,2.0581684981685
280.412092,1.5214652014652
280.492228,1.71648351648352
280.572189999998,2.10410256410256
280.652056000002,1.23538461538462
280.731294,1.2829304029304
280.810884999998,1.30952380952381
280.891667999998,1.38124542124542
280.969086000003,1.37238095238095
281.047967,2.57875457875458
281.143941,1.43684981684982
281.223704999998,1.66732600732601
281.303620999999,2.13391941391941
281.383855000004,1.28695970695971
281.462855999999,1.34659340659341
281.543721000001,1.41347985347985
281.623659000002,1.45296703296703
281.704064999998,1.51904761904762
281.783151000001,1.43846153846154
281.862013000004,1.50534798534799
281.942873000003,1.60205128205128
282.022631000005,1.99611721611722
282.103133000001,1.53919413919414
282.197031999998,1.37641025641026
282.273230999999,1.38446886446886
282.354156000003,1.42234432234432
282.433998000003,1.46102564102564
282.514465999998,1.5585347985348
282.594600000001,1.49487179487179
282.674655000001,1.47069597069597
282.753245000005,1.51018315018315
282.831927000001,1.77047619047619
282.910994000003,1.87443223443223
282.991553000003,1.25391941391941
283.084189999998,1.29582417582418
283.163226000004,1.36029304029304
283.244241999999,1.41186813186813
283.323512000002,1.48842490842491
283.403697999999,1.49084249084249
283.481278999999,3.19846153846154
283.562395999998,1.50615384615385
283.638590000004,1.67699633699634
283.734208999999,2.20967032967033
283.815096000001,1.30388278388278
283.895870000005,1.32725274725275
283.974873999998,1.40622710622711
284.055067000002,1.45054945054945
284.135517999999,1.49728937728938
284.214980000004,1.55450549450549
284.292567000002,1.53032967032967
284.371980000004,2.40468864468864
284.461256000005,1.48197802197802
284.531035000004,1.61897435897436
284.610941,2.05010989010989
284.701564999998,1.3796336996337
284.780603,1.33531135531136
284.860527000003,1.36432234432234
284.940787,1.37157509157509
285.019868000001,1.42315018315018
285.100561999999,1.48842490842491
285.180431000002,1.57304029304029
285.260723000005,1.55450549450549
285.340622000001,1.4247619047619
285.42075,1.53838827838828
285.507061999999,1.80190476190476
285.587226000004,3.20410256410256
285.667053999998,3.20410256410256
285.747759999998,0.10959706959707
285.829865000002,0
285.907832000002,0.909010989010989
285.993042999998,1.38608058608059
286.072692000002,3.19443223443223
286.152876000002,0.532673992673993
286.233792000003,0.243369963369963
286.316997000001,2.02593406593407
286.396055,2.71091575091575
286.472538000002,0.85985347985348
286.568578000002,1.02021978021978
286.649050000004,1.00813186813187
286.727272,1.65040293040293
286.806332000002,0.977509157509157
286.885068000004,1.76967032967033
286.962927000001,1.78981684981685
287.044221000001,1.35465201465201
287.124461000003,1.91875457875458
287.203678999998,2.13794871794872
287.283796999998,1.4989010989011
287.377887000002,1.26761904761905
287.454487000003,1.36673992673993
287.533427000001,1.27970695970696
287.613890000001,1.17575091575092
287.690625,3.19684981684982
287.769751000002,1.68586080586081
287.864682000004,1.53677655677656
287.944886,2.01948717948718
288.021726999998,1.3159706959707
288.099721000001,1.40622710622711
288.176721000001,1.30952380952381
288.254822000004,1.38930402930403
288.334612000003,1.52549450549451
288.429914000005,3.1952380952381
288.510269000001,1.45619047619048
288.588142999999,1.73018315018315
288.667638999999,1.77208791208791
288.748082000002,1.19589743589744
288.824267999999,1.53758241758242
288.902689999998,1.62864468864469
288.982847000003,1.61333333333333
289.077075000003,1.61655677655678
289.154991000004,1.49084249084249
289.231458000004,1.29018315018315
289.309734999999,1.71003663003663
289.390086000003,1.72212454212454
289.469888999999,1.23135531135531
289.551215000004,1.45457875457875
289.645126000002,1.4207326007326
289.724508000001,1.53194139194139
289.801894000001,3.20087912087912
289.879294,1.62945054945055
289.957263000004,1.78336996336996
290.036484999999,2.08637362637363
290.130026000001,1.41589743589744
290.208818000004,1.27406593406593
290.287745000005,1.41025641025641
290.366039000005,1.46505494505495
290.446950999998,3.20410256410256
290.528071000002,1.21040293040293
290.606582000002,1.39736263736264
290.687710000001,2.02190476190476
290.766979000002,1.45135531135531
290.846934,1.28051282051282
290.940103,1.44974358974359
291.016899000004,1.05567765567766
291.095493000001,2.89465201465201
291.172734999999,1.50857142857143
291.251305,1.42717948717949
291.344245000005,1.9574358974359
